-1.950000000000000067e-01
-1.950000000000000067e-01
-1.950000000000000067e-01
-2.049999999999999878e-01
-2.049999999999999878e-01
-2.049999999999999878e-01
-2.049999999999999878e-01
-1.849999999999999978e-01
-2.049999999999999878e-01
-2.049999999999999878e-01
-1.849999999999999978e-01
-1.849999999999999978e-01
-1.849999999999999978e-01
-1.950000000000000067e-01
-1.950000000000000067e-01
-1.749999999999999889e-01
-1.950000000000000067e-01
-2.049999999999999878e-01
-2.049999999999999878e-01
-1.950000000000000067e-01
-2.049999999999999878e-01
-2.149999999999999967e-01
-2.250000000000000056e-01
-1.950000000000000067e-01
-2.250000000000000056e-01
-2.349999999999999867e-01
-2.349999999999999867e-01
-2.250000000000000056e-01
-2.349999999999999867e-01
-2.349999999999999867e-01
-2.250000000000000056e-01
-2.149999999999999967e-01
-2.349999999999999867e-01
-2.449999999999999956e-01
-2.250000000000000056e-01
-2.349999999999999867e-01
-2.349999999999999867e-01
-2.349999999999999867e-01
-2.250000000000000056e-01
-2.250000000000000056e-01
-2.250000000000000056e-01
-1.950000000000000067e-01
-1.549999999999999989e-01
-1.449999999999999900e-01
-5.500000000000000028e-02
-4.499999999999999833e-02
-1.350000000000000089e-01
-1.449999999999999900e-01
-1.849999999999999978e-01
-2.449999999999999956e-01
-2.349999999999999867e-01
-2.449999999999999956e-01
-2.250000000000000056e-01
-2.449999999999999956e-01
-2.349999999999999867e-01
-2.349999999999999867e-01
-2.449999999999999956e-01
-2.449999999999999956e-01
-2.349999999999999867e-01
-2.250000000000000056e-01
-2.349999999999999867e-01
-2.349999999999999867e-01
-2.149999999999999967e-01
-1.849999999999999978e-01
-1.950000000000000067e-01
-1.650000000000000078e-01
-2.550000000000000044e-01
-6.149999999999999911e-01
-5.150000000000000133e-01
8.349999999999999645e-01
2.125000000000000000e+00
2.745000000000000107e+00
2.154999999999999805e+00
4.550000000000000155e-01
-1.250000000000000000e-01
-4.499999999999999833e-02
-1.150000000000000050e-01
-1.749999999999999889e-01
-2.049999999999999878e-01
-2.149999999999999967e-01
-2.449999999999999956e-01
-2.349999999999999867e-01
-2.250000000000000056e-01
-2.250000000000000056e-01
-2.250000000000000056e-01
-2.449999999999999956e-01
-2.149999999999999967e-01
-1.950000000000000067e-01
-1.950000000000000067e-01
-2.149999999999999967e-01
-1.950000000000000067e-01
-1.849999999999999978e-01
-1.749999999999999889e-01
-1.449999999999999900e-01
-1.250000000000000000e-01
-8.500000000000000611e-02
-7.499999999999999722e-02
-5.500000000000000028e-02
-1.499999999999999944e-02
2.500000000000000139e-02
6.500000000000000222e-02
1.150000000000000050e-01
1.650000000000000078e-01
2.250000000000000056e-01
2.650000000000000133e-01
3.049999999999999933e-01
3.649999999999999911e-01
4.050000000000000266e-01
4.050000000000000266e-01
3.750000000000000000e-01
3.150000000000000022e-01
2.449999999999999956e-01
1.150000000000000050e-01
5.000000000000000104e-03
-8.500000000000000611e-02
-1.650000000000000078e-01
-1.950000000000000067e-01
-2.250000000000000056e-01
-2.349999999999999867e-01
-2.349999999999999867e-01
-2.250000000000000056e-01
-2.349999999999999867e-01
-2.250000000000000056e-01
-2.250000000000000056e-01
-2.250000000000000056e-01
-2.349999999999999867e-01
-2.250000000000000056e-01
-2.049999999999999878e-01
-2.149999999999999967e-01
-2.149999999999999967e-01
-2.049999999999999878e-01
-2.049999999999999878e-01
-2.049999999999999878e-01
-2.149999999999999967e-01
-2.149999999999999967e-01
-2.049999999999999878e-01
-2.250000000000000056e-01
-2.349999999999999867e-01
-2.349999999999999867e-01
-2.349999999999999867e-01
-2.349999999999999867e-01
-2.449999999999999956e-01
-2.550000000000000044e-01
-2.449999999999999956e-01
-2.550000000000000044e-01
-2.650000000000000133e-01
-2.550000000000000044e-01
-2.550000000000000044e-01
-2.550000000000000044e-01
-2.650000000000000133e-01
-2.550000000000000044e-01
-2.449999999999999956e-01
-2.650000000000000133e-01
-2.650000000000000133e-01
-2.550000000000000044e-01
-2.550000000000000044e-01
-2.550000000000000044e-01
-2.550000000000000044e-01
-2.149999999999999967e-01
-1.449999999999999900e-01
-1.749999999999999889e-01
-1.049999999999999961e-01
-6.500000000000000222e-02
-1.650000000000000078e-01
-1.950000000000000067e-01
-2.250000000000000056e-01
-2.149999999999999967e-01
-2.349999999999999867e-01
-2.650000000000000133e-01
-2.750000000000000222e-01
-2.650000000000000133e-01
-2.650000000000000133e-01
-2.550000000000000044e-01
-2.650000000000000133e-01
-2.650000000000000133e-01
-2.449999999999999956e-01
-2.550000000000000044e-01
-2.650000000000000133e-01
-2.449999999999999956e-01
-2.349999999999999867e-01
-2.250000000000000056e-01
-2.250000000000000056e-01
-1.849999999999999978e-01
-1.950000000000000067e-01
-5.550000000000000488e-01
-6.550000000000000266e-01
1.950000000000000067e-01
1.804999999999999938e+00
2.515000000000000124e+00
2.694999999999999840e+00
1.294999999999999929e+00
5.000000000000000104e-03
-8.500000000000000611e-02
-1.150000000000000050e-01
-1.749999999999999889e-01
-2.250000000000000056e-01
-2.449999999999999956e-01
-2.650000000000000133e-01
-2.550000000000000044e-01
-2.449999999999999956e-01
-2.550000000000000044e-01
-2.650000000000000133e-01
-2.449999999999999956e-01
-2.449999999999999956e-01
-2.349999999999999867e-01
-2.449999999999999956e-01
-2.349999999999999867e-01
-2.149999999999999967e-01
-2.149999999999999967e-01
-2.149999999999999967e-01
-1.849999999999999978e-01
-1.650000000000000078e-01
-1.350000000000000089e-01
-1.250000000000000000e-01
-9.500000000000000111e-02
-4.499999999999999833e-02
-1.499999999999999944e-02
2.500000000000000139e-02
1.049999999999999961e-01
1.449999999999999900e-01
2.149999999999999967e-01
2.550000000000000044e-01
3.150000000000000022e-01
3.649999999999999911e-01
3.850000000000000089e-01
4.050000000000000266e-01
3.950000000000000178e-01
3.350000000000000200e-01
2.449999999999999956e-01
1.250000000000000000e-01
2.500000000000000139e-02
-5.500000000000000028e-02
-1.449999999999999900e-01
-1.950000000000000067e-01
-2.149999999999999967e-01
-2.349999999999999867e-01
-2.349999999999999867e-01
-2.449999999999999956e-01
-2.349999999999999867e-01
-2.250000000000000056e-01
-2.349999999999999867e-01
-2.349999999999999867e-01
-2.250000000000000056e-01
-2.250000000000000056e-01
-2.250000000000000056e-01
-2.149999999999999967e-01
-2.049999999999999878e-01
-1.950000000000000067e-01
-2.049999999999999878e-01
-2.149999999999999967e-01
-2.049999999999999878e-01
-2.049999999999999878e-01
-2.049999999999999878e-01
-2.149999999999999967e-01
-2.250000000000000056e-01
-2.049999999999999878e-01
-2.049999999999999878e-01
-2.149999999999999967e-01
-2.149999999999999967e-01
-2.250000000000000056e-01
-2.250000000000000056e-01
-2.349999999999999867e-01
-2.349999999999999867e-01
-2.149999999999999967e-01
-2.349999999999999867e-01
-2.449999999999999956e-01
-2.250000000000000056e-01
-2.250000000000000056e-01
-2.250000000000000056e-01
-2.349999999999999867e-01
-2.250000000000000056e-01
-2.049999999999999878e-01
-2.250000000000000056e-01
-2.250000000000000056e-01
-2.149999999999999967e-01
-2.149999999999999967e-01
-2.149999999999999967e-01
-2.149999999999999967e-01
-2.149999999999999967e-01
-2.049999999999999878e-01
-2.149999999999999967e-01
-2.149999999999999967e-01
-1.650000000000000078e-01
-1.150000000000000050e-01
-1.350000000000000089e-01
-3.500000000000000333e-02
-1.499999999999999944e-02
-1.150000000000000050e-01
-1.549999999999999989e-01
-1.749999999999999889e-01
-1.950000000000000067e-01
-2.049999999999999878e-01
-2.149999999999999967e-01
-2.250000000000000056e-01
-2.049999999999999878e-01
-2.049999999999999878e-01
-2.049999999999999878e-01
-2.149999999999999967e-01
-2.149999999999999967e-01
-2.149999999999999967e-01
-2.049999999999999878e-01
-2.049999999999999878e-01
-1.950000000000000067e-01
-1.849999999999999978e-01
-1.849999999999999978e-01
-1.749999999999999889e-01
-1.350000000000000089e-01
-2.849999999999999756e-01
-6.350000000000000089e-01
-4.849999999999999867e-01
1.024999999999999911e+00
2.305000000000000160e+00
2.825000000000000178e+00
1.875000000000000000e+00
2.650000000000000133e-01
-7.499999999999999722e-02
-2.500000000000000139e-02
-1.049999999999999961e-01
-1.549999999999999989e-01
-1.749999999999999889e-01
-1.950000000000000067e-01
-2.250000000000000056e-01
-2.250000000000000056e-01
-2.250000000000000056e-01
-2.250000000000000056e-01
-2.149999999999999967e-01
-2.149999999999999967e-01
-1.950000000000000067e-01
-1.950000000000000067e-01
-1.950000000000000067e-01
-1.849999999999999978e-01
-1.749999999999999889e-01
-1.449999999999999900e-01
-1.350000000000000089e-01
-1.250000000000000000e-01
-8.500000000000000611e-02
-7.499999999999999722e-02
-4.499999999999999833e-02
-2.500000000000000139e-02
1.499999999999999944e-02
6.500000000000000222e-02
1.150000000000000050e-01
1.650000000000000078e-01
2.250000000000000056e-01
2.750000000000000222e-01
3.049999999999999933e-01
3.549999999999999822e-01
3.950000000000000178e-01
4.450000000000000067e-01
4.550000000000000155e-01
4.349999999999999978e-01
3.850000000000000089e-01
2.849999999999999756e-01
1.650000000000000078e-01
4.499999999999999833e-02
-4.499999999999999833e-02
-1.049999999999999961e-01
-1.650000000000000078e-01
-1.849999999999999978e-01
-1.849999999999999978e-01
-2.149999999999999967e-01
-2.250000000000000056e-01
-2.149999999999999967e-01
-2.149999999999999967e-01
-2.049999999999999878e-01
-2.149999999999999967e-01
-2.049999999999999878e-01
-1.749999999999999889e-01
-1.950000000000000067e-01
-1.950000000000000067e-01
-1.849999999999999978e-01
-1.950000000000000067e-01
-1.950000000000000067e-01
-1.950000000000000067e-01
-1.950000000000000067e-01
-1.749999999999999889e-01
-1.950000000000000067e-01
-2.049999999999999878e-01
-1.950000000000000067e-01
-2.049999999999999878e-01
-2.049999999999999878e-01
-2.149999999999999967e-01
-2.149999999999999967e-01
-2.049999999999999878e-01
-2.149999999999999967e-01
-2.250000000000000056e-01
-2.250000000000000056e-01
-2.250000000000000056e-01
-2.250000000000000056e-01
-2.250000000000000056e-01
-2.250000000000000056e-01
-2.049999999999999878e-01
-2.250000000000000056e-01
-2.250000000000000056e-01
-2.149999999999999967e-01
-2.149999999999999967e-01
-2.149999999999999967e-01
-2.049999999999999878e-01
-2.049999999999999878e-01
-1.950000000000000067e-01
-2.149999999999999967e-01
-2.149999999999999967e-01
-1.749999999999999889e-01
-1.150000000000000050e-01
-1.250000000000000000e-01
-6.500000000000000222e-02
5.000000000000000104e-03
-8.500000000000000611e-02
-1.350000000000000089e-01
-1.749999999999999889e-01
-1.749999999999999889e-01
-2.049999999999999878e-01
-2.049999999999999878e-01
-2.149999999999999967e-01
-1.950000000000000067e-01
-1.749999999999999889e-01
-1.950000000000000067e-01
-2.149999999999999967e-01
-2.049999999999999878e-01
-2.049999999999999878e-01
-1.950000000000000067e-01
-1.950000000000000067e-01
-1.849999999999999978e-01
-1.549999999999999989e-01
-1.650000000000000078e-01
-1.650000000000000078e-01
-1.350000000000000089e-01
-4.149999999999999800e-01
-6.350000000000000089e-01
-1.849999999999999978e-01
1.465000000000000080e+00
2.475000000000000089e+00
2.875000000000000000e+00
1.514999999999999902e+00
6.500000000000000222e-02
-5.500000000000000028e-02
-4.499999999999999833e-02
-1.250000000000000000e-01
-1.549999999999999989e-01
-1.749999999999999889e-01
-2.049999999999999878e-01
-2.049999999999999878e-01
-2.149999999999999967e-01
-2.049999999999999878e-01
-2.149999999999999967e-01
-2.049999999999999878e-01
-1.950000000000000067e-01
-1.849999999999999978e-01
-1.849999999999999978e-01
-1.749999999999999889e-01
-1.650000000000000078e-01
-1.449999999999999900e-01
-1.449999999999999900e-01
-1.350000000000000089e-01
-1.150000000000000050e-01
-8.500000000000000611e-02
-6.500000000000000222e-02
-4.499999999999999833e-02
-5.000000000000000104e-03
3.500000000000000333e-02
8.500000000000000611e-02
1.250000000000000000e-01
1.849999999999999978e-01
2.349999999999999867e-01
2.849999999999999756e-01
3.250000000000000111e-01
3.750000000000000000e-01
4.050000000000000266e-01
4.550000000000000155e-01
4.550000000000000155e-01
3.950000000000000178e-01
3.250000000000000111e-01
2.149999999999999967e-01
9.500000000000000111e-02
-5.000000000000000104e-03
-8.500000000000000611e-02
-1.350000000000000089e-01
-1.749999999999999889e-01
-1.849999999999999978e-01
-1.849999999999999978e-01
-1.950000000000000067e-01
-1.950000000000000067e-01
-1.849999999999999978e-01
-1.849999999999999978e-01
-1.849999999999999978e-01
-1.950000000000000067e-01
-1.950000000000000067e-01
-1.749999999999999889e-01
-1.749999999999999889e-01
-1.849999999999999978e-01
-1.749999999999999889e-01
-1.749999999999999889e-01
-1.650000000000000078e-01
-1.749999999999999889e-01
-1.650000000000000078e-01
-1.549999999999999989e-01
-1.749999999999999889e-01
-1.749999999999999889e-01
-1.749999999999999889e-01
-1.749999999999999889e-01
-1.749999999999999889e-01
-1.950000000000000067e-01
-2.049999999999999878e-01
-1.749999999999999889e-01
-1.849999999999999978e-01
-1.950000000000000067e-01
-1.950000000000000067e-01
-1.950000000000000067e-01
-1.950000000000000067e-01
-2.049999999999999878e-01
-2.049999999999999878e-01
-1.950000000000000067e-01
-2.049999999999999878e-01
-1.950000000000000067e-01
-1.950000000000000067e-01
-1.950000000000000067e-01
-1.849999999999999978e-01
-2.049999999999999878e-01
-1.950000000000000067e-01
-1.749999999999999889e-01
-1.849999999999999978e-01
-1.950000000000000067e-01
-1.849999999999999978e-01
-1.749999999999999889e-01
-1.849999999999999978e-01
-1.950000000000000067e-01
-1.849999999999999978e-01
-1.250000000000000000e-01
-1.049999999999999961e-01
-1.150000000000000050e-01
-5.000000000000000104e-03
2.500000000000000139e-02
-8.500000000000000611e-02
-1.250000000000000000e-01
-1.449999999999999900e-01
-1.449999999999999900e-01
-1.749999999999999889e-01
-1.950000000000000067e-01
-1.749999999999999889e-01
-1.749999999999999889e-01
-1.650000000000000078e-01
-1.849999999999999978e-01
-1.749999999999999889e-01
-1.549999999999999989e-01
-1.749999999999999889e-01
-1.749999999999999889e-01
-1.650000000000000078e-01
-1.549999999999999989e-01
-1.549999999999999989e-01
-1.449999999999999900e-01
-1.049999999999999961e-01
-1.749999999999999889e-01
-5.550000000000000488e-01
-5.050000000000000044e-01
7.850000000000000311e-01
2.125000000000000000e+00
2.734999999999999876e+00
2.285000000000000142e+00
5.150000000000000133e-01
-3.500000000000000333e-02
-1.499999999999999944e-02
-6.500000000000000222e-02
-1.150000000000000050e-01
-1.350000000000000089e-01
-1.650000000000000078e-01
-1.950000000000000067e-01
-1.849999999999999978e-01
-1.749999999999999889e-01
-1.849999999999999978e-01
-1.849999999999999978e-01
-1.749999999999999889e-01
-1.650000000000000078e-01
-1.549999999999999989e-01
-1.549999999999999989e-01
-1.449999999999999900e-01
-1.350000000000000089e-01
-1.250000000000000000e-01
-1.250000000000000000e-01
-9.500000000000000111e-02
-7.499999999999999722e-02
-5.500000000000000028e-02
-3.500000000000000333e-02
5.000000000000000104e-03
5.500000000000000028e-02
7.499999999999999722e-02
1.150000000000000050e-01
1.549999999999999989e-01
2.149999999999999967e-01
2.849999999999999756e-01
3.250000000000000111e-01
3.649999999999999911e-01
4.149999999999999800e-01
4.550000000000000155e-01
4.749999999999999778e-01
4.650000000000000244e-01
4.249999999999999889e-01
3.549999999999999822e-01
2.349999999999999867e-01
1.350000000000000089e-01
3.500000000000000333e-02
-5.500000000000000028e-02
-1.150000000000000050e-01
-1.449999999999999900e-01
-1.650000000000000078e-01
-1.749999999999999889e-01
-1.849999999999999978e-01
-1.749999999999999889e-01
-1.549999999999999989e-01
-1.650000000000000078e-01
-1.650000000000000078e-01
-1.549999999999999989e-01
-1.549999999999999989e-01
-1.449999999999999900e-01
-1.549999999999999989e-01
-1.549999999999999989e-01
-1.449999999999999900e-01
-1.449999999999999900e-01
-1.549999999999999989e-01
-1.449999999999999900e-01
-1.549999999999999989e-01
-1.549999999999999989e-01
-1.650000000000000078e-01
-1.549999999999999989e-01
-1.549999999999999989e-01
-1.749999999999999889e-01
-1.849999999999999978e-01
-1.749999999999999889e-01
-1.749999999999999889e-01
-1.749999999999999889e-01
-1.849999999999999978e-01
-1.849999999999999978e-01
-1.849999999999999978e-01
-1.849999999999999978e-01
-1.849999999999999978e-01
-1.950000000000000067e-01
-1.950000000000000067e-01
-1.950000000000000067e-01
-1.950000000000000067e-01
-1.950000000000000067e-01
-1.749999999999999889e-01
-1.849999999999999978e-01
-1.950000000000000067e-01
-1.749999999999999889e-01
-1.749999999999999889e-01
-1.749999999999999889e-01
-1.849999999999999978e-01
-1.549999999999999989e-01
-8.500000000000000611e-02
-1.049999999999999961e-01
-4.499999999999999833e-02
2.500000000000000139e-02
-5.500000000000000028e-02
-1.049999999999999961e-01
-1.350000000000000089e-01
-1.350000000000000089e-01
-1.549999999999999989e-01
-1.849999999999999978e-01
-1.849999999999999978e-01
-1.749999999999999889e-01
-1.749999999999999889e-01
-1.650000000000000078e-01
-1.849999999999999978e-01
-1.650000000000000078e-01
-1.549999999999999989e-01
-1.650000000000000078e-01
-1.749999999999999889e-01
-1.549999999999999989e-01
-1.449999999999999900e-01
-1.350000000000000089e-01
-1.150000000000000050e-01
-3.850000000000000089e-01
-5.949999999999999734e-01
-1.749999999999999889e-01
1.504999999999999893e+00
2.484999999999999876e+00
2.854999999999999982e+00
1.625000000000000000e+00
1.350000000000000089e-01
-4.499999999999999833e-02
-5.000000000000000104e-03
-8.500000000000000611e-02
-1.350000000000000089e-01
-1.549999999999999989e-01
-1.749999999999999889e-01
-1.749999999999999889e-01
-1.849999999999999978e-01
-1.849999999999999978e-01
-1.549999999999999989e-01
-1.650000000000000078e-01
-1.749999999999999889e-01
-1.549999999999999989e-01
-1.549999999999999989e-01
-1.350000000000000089e-01
-1.449999999999999900e-01
-1.250000000000000000e-01
-1.049999999999999961e-01
-9.500000000000000111e-02
-8.500000000000000611e-02
-6.500000000000000222e-02
-3.500000000000000333e-02
-1.499999999999999944e-02
1.499999999999999944e-02
5.500000000000000028e-02
1.150000000000000050e-01
1.449999999999999900e-01
1.849999999999999978e-01
2.449999999999999956e-01
3.049999999999999933e-01
3.449999999999999734e-01
3.950000000000000178e-01
4.450000000000000067e-01
4.849999999999999867e-01
4.849999999999999867e-01
4.249999999999999889e-01
3.549999999999999822e-01
2.449999999999999956e-01
1.250000000000000000e-01
1.499999999999999944e-02
-4.499999999999999833e-02
-9.500000000000000111e-02
-1.350000000000000089e-01
-1.650000000000000078e-01
-1.749999999999999889e-01
-1.749999999999999889e-01
-1.650000000000000078e-01
-1.749999999999999889e-01
-1.749999999999999889e-01
-1.549999999999999989e-01
-1.650000000000000078e-01
-1.749999999999999889e-01
-1.650000000000000078e-01
-1.549999999999999989e-01
-1.350000000000000089e-01
-1.549999999999999989e-01
-1.449999999999999900e-01
-1.350000000000000089e-01
-1.449999999999999900e-01
-1.549999999999999989e-01
-1.549999999999999989e-01
-1.449999999999999900e-01
-1.449999999999999900e-01
-1.650000000000000078e-01
-1.549999999999999989e-01
-1.449999999999999900e-01
-1.650000000000000078e-01
-1.749999999999999889e-01
-1.749999999999999889e-01
-1.650000000000000078e-01
-1.749999999999999889e-01
-1.849999999999999978e-01
-1.849999999999999978e-01
-1.650000000000000078e-01
-1.749999999999999889e-01
-1.849999999999999978e-01
-1.849999999999999978e-01
-1.849999999999999978e-01
-1.749999999999999889e-01
-1.849999999999999978e-01
-1.849999999999999978e-01
-1.650000000000000078e-01
-1.749999999999999889e-01
-1.849999999999999978e-01
-1.650000000000000078e-01
-1.650000000000000078e-01
-1.749999999999999889e-01
-1.749999999999999889e-01
-1.650000000000000078e-01
-1.449999999999999900e-01
-1.650000000000000078e-01
-1.650000000000000078e-01
-1.549999999999999989e-01
-1.549999999999999989e-01
-1.150000000000000050e-01
-6.500000000000000222e-02
-8.500000000000000611e-02
5.000000000000000104e-03
4.499999999999999833e-02
-8.500000000000000611e-02
-1.049999999999999961e-01
-1.250000000000000000e-01
-1.250000000000000000e-01
-1.650000000000000078e-01
-1.749999999999999889e-01
-1.650000000000000078e-01
-1.650000000000000078e-01
-1.650000000000000078e-01
-1.549999999999999989e-01
-1.650000000000000078e-01
-1.650000000000000078e-01
-1.650000000000000078e-01
-1.650000000000000078e-01
-1.449999999999999900e-01
-1.350000000000000089e-01
-1.150000000000000050e-01
-1.849999999999999978e-01
-5.949999999999999734e-01
-5.450000000000000400e-01
9.350000000000000533e-01
2.194999999999999840e+00
2.694999999999999840e+00
2.435000000000000053e+00
6.750000000000000444e-01
-6.500000000000000222e-02
-2.500000000000000139e-02
-7.499999999999999722e-02
-1.350000000000000089e-01
-1.849999999999999978e-01
-1.849999999999999978e-01
-1.950000000000000067e-01
-2.049999999999999878e-01
-2.049999999999999878e-01
-2.049999999999999878e-01
-1.950000000000000067e-01
-1.950000000000000067e-01
-1.950000000000000067e-01
-1.749999999999999889e-01
-1.749999999999999889e-01
-1.749999999999999889e-01
-1.549999999999999989e-01
-1.449999999999999900e-01
-1.350000000000000089e-01
-1.250000000000000000e-01
-1.049999999999999961e-01
-6.500000000000000222e-02
-5.500000000000000028e-02
-3.500000000000000333e-02
5.000000000000000104e-03
5.500000000000000028e-02
1.049999999999999961e-01
1.549999999999999989e-01
1.950000000000000067e-01
2.550000000000000044e-01
2.949999999999999845e-01
3.449999999999999734e-01
3.950000000000000178e-01
4.349999999999999978e-01
4.749999999999999778e-01
4.550000000000000155e-01
3.950000000000000178e-01
3.150000000000000022e-01
1.950000000000000067e-01
7.499999999999999722e-02
-2.500000000000000139e-02
-9.500000000000000111e-02
-1.350000000000000089e-01
-1.749999999999999889e-01
-1.849999999999999978e-01
-1.849999999999999978e-01
-2.049999999999999878e-01
-1.950000000000000067e-01
-1.849999999999999978e-01
-1.950000000000000067e-01
-1.950000000000000067e-01
-1.849999999999999978e-01
-1.849999999999999978e-01
-1.849999999999999978e-01
-1.849999999999999978e-01
-1.849999999999999978e-01
-1.849999999999999978e-01
-1.749999999999999889e-01
-1.549999999999999989e-01
-1.650000000000000078e-01
-1.749999999999999889e-01
-1.650000000000000078e-01
-1.749999999999999889e-01
-1.849999999999999978e-01
-1.849999999999999978e-01
-1.849999999999999978e-01
-1.849999999999999978e-01
-2.049999999999999878e-01
-1.950000000000000067e-01
-1.849999999999999978e-01
-1.849999999999999978e-01
-2.049999999999999878e-01
-1.950000000000000067e-01
-2.049999999999999878e-01
-1.950000000000000067e-01
-2.049999999999999878e-01
-2.049999999999999878e-01
-1.950000000000000067e-01
-2.049999999999999878e-01
-2.149999999999999967e-01
-2.049999999999999878e-01
-2.049999999999999878e-01
-1.950000000000000067e-01
-2.049999999999999878e-01
-2.149999999999999967e-01
-1.849999999999999978e-01
-1.950000000000000067e-01
-2.049999999999999878e-01
-1.849999999999999978e-01
-1.849999999999999978e-01
-1.950000000000000067e-01
-1.950000000000000067e-01
-1.849999999999999978e-01
-1.749999999999999889e-01
-1.749999999999999889e-01
-1.749999999999999889e-01
-1.250000000000000000e-01
-1.049999999999999961e-01
-9.500000000000000111e-02
5.000000000000000104e-03
-5.000000000000000104e-03
-9.500000000000000111e-02
-1.049999999999999961e-01
-1.350000000000000089e-01
-1.749999999999999889e-01
-1.849999999999999978e-01
-1.849999999999999978e-01
-1.749999999999999889e-01
-1.749999999999999889e-01
-1.849999999999999978e-01
-1.749999999999999889e-01
-1.749999999999999889e-01
-1.849999999999999978e-01
-1.749999999999999889e-01
-1.650000000000000078e-01
-1.549999999999999989e-01
-1.449999999999999900e-01
-1.350000000000000089e-01
-1.049999999999999961e-01
-2.750000000000000222e-01
-6.049999999999999822e-01
-4.050000000000000266e-01
1.125000000000000000e+00
2.294999999999999929e+00
2.785000000000000142e+00
1.824999999999999956e+00
1.549999999999999989e-01
-6.500000000000000222e-02
-1.499999999999999944e-02
-7.499999999999999722e-02
-1.350000000000000089e-01
-1.849999999999999978e-01
-1.849999999999999978e-01
-1.650000000000000078e-01
-1.950000000000000067e-01
-2.049999999999999878e-01
-1.849999999999999978e-01
-1.749999999999999889e-01
-1.749999999999999889e-01
-1.749999999999999889e-01
-1.749999999999999889e-01
-1.449999999999999900e-01
-1.549999999999999989e-01
-1.449999999999999900e-01
-1.049999999999999961e-01
-9.500000000000000111e-02
-7.499999999999999722e-02
-6.500000000000000222e-02
-4.499999999999999833e-02
-5.000000000000000104e-03
2.500000000000000139e-02
6.500000000000000222e-02
1.150000000000000050e-01
1.650000000000000078e-01
2.149999999999999967e-01
2.550000000000000044e-01
2.949999999999999845e-01
3.549999999999999822e-01
3.950000000000000178e-01
4.349999999999999978e-01
4.749999999999999778e-01
4.650000000000000244e-01
4.249999999999999889e-01
3.449999999999999734e-01
2.349999999999999867e-01
1.250000000000000000e-01
1.499999999999999944e-02
-7.499999999999999722e-02
-1.150000000000000050e-01
-1.549999999999999989e-01
-1.650000000000000078e-01
-1.849999999999999978e-01
-1.950000000000000067e-01
-1.749999999999999889e-01
-1.849999999999999978e-01
-1.950000000000000067e-01
-1.849999999999999978e-01
-1.849999999999999978e-01
-1.849999999999999978e-01
-1.749999999999999889e-01
-1.650000000000000078e-01
-1.549999999999999989e-01
-1.650000000000000078e-01
-1.650000000000000078e-01
-1.749999999999999889e-01
-1.650000000000000078e-01
-1.650000000000000078e-01
-1.749999999999999889e-01
-1.749999999999999889e-01
-1.650000000000000078e-01
-1.749999999999999889e-01
-1.849999999999999978e-01
-1.950000000000000067e-01
-1.849999999999999978e-01
-1.849999999999999978e-01
-1.849999999999999978e-01
-2.049999999999999878e-01
-1.849999999999999978e-01
-2.049999999999999878e-01
-2.049999999999999878e-01
-2.049999999999999878e-01
-2.049999999999999878e-01
-2.049999999999999878e-01
-2.049999999999999878e-01
-2.149999999999999967e-01
-2.049999999999999878e-01
-1.950000000000000067e-01
-2.049999999999999878e-01
-2.049999999999999878e-01
-1.950000000000000067e-01
-1.950000000000000067e-01
-2.149999999999999967e-01
-2.049999999999999878e-01
-1.749999999999999889e-01
-1.950000000000000067e-01
-2.049999999999999878e-01
-1.849999999999999978e-01
-1.150000000000000050e-01
-1.150000000000000050e-01
-9.500000000000000111e-02
5.000000000000000104e-03
-2.500000000000000139e-02
-1.150000000000000050e-01
-1.449999999999999900e-01
-1.650000000000000078e-01
-1.749999999999999889e-01
-1.950000000000000067e-01
-2.049999999999999878e-01
-1.749999999999999889e-01
-1.650000000000000078e-01
-1.950000000000000067e-01
-1.950000000000000067e-01
-1.950000000000000067e-01
-1.849999999999999978e-01
-1.749999999999999889e-01
-1.849999999999999978e-01
-1.749999999999999889e-01
-1.549999999999999989e-01
-1.549999999999999989e-01
-1.350000000000000089e-01
-1.549999999999999989e-01
-5.050000000000000044e-01
-5.350000000000000311e-01
4.149999999999999800e-01
1.864999999999999991e+00
2.604999999999999982e+00
2.705000000000000071e+00
1.054999999999999938e+00
-4.499999999999999833e-02
-1.499999999999999944e-02
-3.500000000000000333e-02
-1.049999999999999961e-01
-1.549999999999999989e-01
-1.650000000000000078e-01
-1.849999999999999978e-01
-2.049999999999999878e-01
-1.950000000000000067e-01
-1.950000000000000067e-01
-1.950000000000000067e-01
-1.950000000000000067e-01
-1.849999999999999978e-01
-1.650000000000000078e-01
-1.650000000000000078e-01
-1.749999999999999889e-01
-1.549999999999999989e-01
-1.549999999999999989e-01
-1.350000000000000089e-01
-1.250000000000000000e-01
-9.500000000000000111e-02
-7.499999999999999722e-02
-5.500000000000000028e-02
-3.500000000000000333e-02
-5.000000000000000104e-03
2.500000000000000139e-02
8.500000000000000611e-02
1.150000000000000050e-01
1.749999999999999889e-01
2.449999999999999956e-01
2.750000000000000222e-01
3.250000000000000111e-01
3.850000000000000089e-01
4.149999999999999800e-01
4.550000000000000155e-01
4.349999999999999978e-01
3.850000000000000089e-01
3.150000000000000022e-01
2.049999999999999878e-01
7.499999999999999722e-02
-1.499999999999999944e-02
-9.500000000000000111e-02
-1.449999999999999900e-01
-1.849999999999999978e-01
-2.049999999999999878e-01
-1.950000000000000067e-01
-2.149999999999999967e-01
-2.349999999999999867e-01
-2.349999999999999867e-01
-2.149999999999999967e-01
-2.149999999999999967e-01
-2.250000000000000056e-01
-2.250000000000000056e-01
-1.950000000000000067e-01
-2.049999999999999878e-01
-2.149999999999999967e-01
-1.950000000000000067e-01
-2.049999999999999878e-01
-1.950000000000000067e-01
-2.049999999999999878e-01
-2.049999999999999878e-01
-1.950000000000000067e-01
-2.049999999999999878e-01
-2.049999999999999878e-01
-2.049999999999999878e-01
-2.049999999999999878e-01
-2.149999999999999967e-01
-2.349999999999999867e-01
-2.250000000000000056e-01
-2.149999999999999967e-01
-2.250000000000000056e-01
-2.349999999999999867e-01
-2.349999999999999867e-01
-2.349999999999999867e-01
-2.250000000000000056e-01
-2.349999999999999867e-01
-2.349999999999999867e-01
-2.149999999999999967e-01
-2.250000000000000056e-01
-2.449999999999999956e-01
-2.349999999999999867e-01
-2.449999999999999956e-01
-2.349999999999999867e-01
-2.449999999999999956e-01
-2.250000000000000056e-01
-2.149999999999999967e-01
-2.250000000000000056e-01
-2.250000000000000056e-01
-2.250000000000000056e-01
-2.250000000000000056e-01
-1.950000000000000067e-01
-1.350000000000000089e-01
-1.449999999999999900e-01
-8.500000000000000611e-02
-2.500000000000000139e-02
-1.250000000000000000e-01
-1.849999999999999978e-01
-1.950000000000000067e-01
-1.849999999999999978e-01
-2.349999999999999867e-01
-2.349999999999999867e-01
-2.250000000000000056e-01
-2.250000000000000056e-01
-2.349999999999999867e-01
-2.250000000000000056e-01
-2.250000000000000056e-01
-2.250000000000000056e-01
-2.349999999999999867e-01
-2.250000000000000056e-01
-2.049999999999999878e-01
-2.049999999999999878e-01
-2.049999999999999878e-01
-1.849999999999999978e-01
-1.549999999999999989e-01
-3.449999999999999734e-01
-6.949999999999999512e-01
-2.550000000000000044e-01
1.495000000000000107e+00
2.444999999999999840e+00
2.785000000000000142e+00
1.655000000000000027e+00
1.950000000000000067e-01
-7.499999999999999722e-02
-7.499999999999999722e-02
-1.350000000000000089e-01
-1.849999999999999978e-01
-2.250000000000000056e-01
-2.349999999999999867e-01
-2.449999999999999956e-01
-2.349999999999999867e-01
-2.449999999999999956e-01
-2.349999999999999867e-01
-2.349999999999999867e-01
-2.149999999999999967e-01
-2.250000000000000056e-01
-2.250000000000000056e-01
-2.149999999999999967e-01
-2.049999999999999878e-01
-1.849999999999999978e-01
-1.849999999999999978e-01
-1.650000000000000078e-01
-1.350000000000000089e-01
-1.250000000000000000e-01
-1.049999999999999961e-01
-7.499999999999999722e-02
-4.499999999999999833e-02
-5.000000000000000104e-03
2.500000000000000139e-02
8.500000000000000611e-02
1.549999999999999989e-01
1.950000000000000067e-01
2.449999999999999956e-01
3.049999999999999933e-01
3.549999999999999822e-01
4.050000000000000266e-01
4.249999999999999889e-01
4.450000000000000067e-01
4.249999999999999889e-01
3.449999999999999734e-01
2.250000000000000056e-01
1.049999999999999961e-01
-5.000000000000000104e-03
-9.500000000000000111e-02
-1.650000000000000078e-01
-1.950000000000000067e-01
-2.049999999999999878e-01
-2.250000000000000056e-01
-2.349999999999999867e-01
-2.349999999999999867e-01
-2.250000000000000056e-01
-2.149999999999999967e-01
-2.250000000000000056e-01
-2.250000000000000056e-01
-2.049999999999999878e-01
-2.149999999999999967e-01
-2.149999999999999967e-01
-2.049999999999999878e-01
-2.049999999999999878e-01
-2.049999999999999878e-01
-2.149999999999999967e-01
-2.049999999999999878e-01
-1.849999999999999978e-01
-1.950000000000000067e-01
-2.049999999999999878e-01
-1.950000000000000067e-01
-2.049999999999999878e-01
-2.049999999999999878e-01
-2.149999999999999967e-01
-1.950000000000000067e-01
-1.849999999999999978e-01
-2.049999999999999878e-01
-2.250000000000000056e-01
-2.149999999999999967e-01
-2.149999999999999967e-01
-2.250000000000000056e-01
-2.250000000000000056e-01
-2.250000000000000056e-01
-1.950000000000000067e-01
-2.149999999999999967e-01
-2.250000000000000056e-01
-2.149999999999999967e-01
-2.149999999999999967e-01
-2.250000000000000056e-01
-2.250000000000000056e-01
-2.149999999999999967e-01
-2.049999999999999878e-01
-2.049999999999999878e-01
-2.149999999999999967e-01
-2.049999999999999878e-01
-2.049999999999999878e-01
-2.049999999999999878e-01
-2.149999999999999967e-01
-2.049999999999999878e-01
-1.749999999999999889e-01
-2.049999999999999878e-01
-2.149999999999999967e-01
-1.950000000000000067e-01
-1.849999999999999978e-01
-1.350000000000000089e-01
-1.049999999999999961e-01
-1.049999999999999961e-01
5.000000000000000104e-03
-5.000000000000000104e-03
-1.250000000000000000e-01
-1.250000000000000000e-01
-1.449999999999999900e-01
-1.749999999999999889e-01
-1.950000000000000067e-01
-2.049999999999999878e-01
-1.849999999999999978e-01
-1.849999999999999978e-01
-1.950000000000000067e-01
-1.849999999999999978e-01
-1.849999999999999978e-01
-1.950000000000000067e-01
-1.849999999999999978e-01
-1.849999999999999978e-01
-1.749999999999999889e-01
-1.749999999999999889e-01
-1.549999999999999989e-01
-1.350000000000000089e-01
-1.049999999999999961e-01
-3.350000000000000200e-01
-6.149999999999999911e-01
-3.049999999999999933e-01
1.324999999999999956e+00
2.325000000000000178e+00
2.785000000000000142e+00
1.735000000000000098e+00
1.549999999999999989e-01
-5.500000000000000028e-02
-3.500000000000000333e-02
-9.500000000000000111e-02
-1.250000000000000000e-01
-1.749999999999999889e-01
-2.149999999999999967e-01
-2.049999999999999878e-01
-2.149999999999999967e-01
-2.149999999999999967e-01
-2.049999999999999878e-01
-1.950000000000000067e-01
-1.749999999999999889e-01
-1.749999999999999889e-01
-1.849999999999999978e-01
-1.650000000000000078e-01
-1.650000000000000078e-01
-1.449999999999999900e-01
-1.250000000000000000e-01
-1.250000000000000000e-01
-8.500000000000000611e-02
-7.499999999999999722e-02
-5.500000000000000028e-02
-1.499999999999999944e-02
1.499999999999999944e-02
5.500000000000000028e-02
9.500000000000000111e-02
1.449999999999999900e-01
2.049999999999999878e-01
2.449999999999999956e-01
2.849999999999999756e-01
3.449999999999999734e-01
3.850000000000000089e-01
4.349999999999999978e-01
4.650000000000000244e-01
4.749999999999999778e-01
4.550000000000000155e-01
3.750000000000000000e-01
2.849999999999999756e-01
1.650000000000000078e-01
6.500000000000000222e-02
-3.500000000000000333e-02
-1.150000000000000050e-01
-1.650000000000000078e-01
-1.549999999999999989e-01
-1.950000000000000067e-01
-2.049999999999999878e-01
-1.950000000000000067e-01
-2.149999999999999967e-01
-1.950000000000000067e-01
-1.950000000000000067e-01
-2.049999999999999878e-01
-1.950000000000000067e-01
-1.950000000000000067e-01
-2.049999999999999878e-01
-1.849999999999999978e-01
-1.749999999999999889e-01
-1.749999999999999889e-01
-1.849999999999999978e-01
-1.950000000000000067e-01
-1.849999999999999978e-01
-1.849999999999999978e-01
-1.849999999999999978e-01
-1.849999999999999978e-01
-1.849999999999999978e-01
-2.049999999999999878e-01
-2.049999999999999878e-01
-2.149999999999999967e-01
-2.149999999999999967e-01
-2.049999999999999878e-01
-2.149999999999999967e-01
-2.149999999999999967e-01
-2.049999999999999878e-01
-2.049999999999999878e-01
-2.149999999999999967e-01
-2.149999999999999967e-01
-2.250000000000000056e-01
-2.250000000000000056e-01
-2.149999999999999967e-01
-2.149999999999999967e-01
-2.250000000000000056e-01
-2.049999999999999878e-01
-2.149999999999999967e-01
-2.149999999999999967e-01
-2.149999999999999967e-01
-2.250000000000000056e-01
-2.250000000000000056e-01
-2.149999999999999967e-01
-1.549999999999999989e-01
-1.350000000000000089e-01
-9.500000000000000111e-02
5.000000000000000104e-03
-5.500000000000000028e-02
-1.150000000000000050e-01
-1.549999999999999989e-01
-1.849999999999999978e-01
-2.049999999999999878e-01
-2.149999999999999967e-01
-2.149999999999999967e-01
-2.250000000000000056e-01
-2.049999999999999878e-01
-2.049999999999999878e-01
-2.149999999999999967e-01
-2.049999999999999878e-01
-1.950000000000000067e-01
-1.950000000000000067e-01
-2.049999999999999878e-01
-1.950000000000000067e-01
-1.650000000000000078e-01
-1.749999999999999889e-01
-1.650000000000000078e-01
-1.849999999999999978e-01
-5.550000000000000488e-01
-5.949999999999999734e-01
3.049999999999999933e-01
1.725000000000000089e+00
2.555000000000000160e+00
2.774999999999999911e+00
1.284999999999999920e+00
-1.499999999999999944e-02
-7.499999999999999722e-02
-5.500000000000000028e-02
-1.150000000000000050e-01
-1.650000000000000078e-01
-1.849999999999999978e-01
-2.049999999999999878e-01
-2.250000000000000056e-01
-2.149999999999999967e-01
-2.149999999999999967e-01
-2.049999999999999878e-01
-2.049999999999999878e-01
-2.049999999999999878e-01
-2.049999999999999878e-01
-2.049999999999999878e-01
-1.950000000000000067e-01
-1.749999999999999889e-01
-1.749999999999999889e-01
-1.549999999999999989e-01
-1.449999999999999900e-01
-1.250000000000000000e-01
-8.500000000000000611e-02
-8.500000000000000611e-02
-6.500000000000000222e-02
-2.500000000000000139e-02
5.000000000000000104e-03
4.499999999999999833e-02
9.500000000000000111e-02
1.549999999999999989e-01
2.149999999999999967e-01
2.550000000000000044e-01
2.849999999999999756e-01
3.449999999999999734e-01
3.750000000000000000e-01
4.149999999999999800e-01
4.050000000000000266e-01
3.649999999999999911e-01
3.049999999999999933e-01
1.849999999999999978e-01
5.500000000000000028e-02
-4.499999999999999833e-02
-1.150000000000000050e-01
-1.650000000000000078e-01
-2.049999999999999878e-01
-2.149999999999999967e-01
-1.950000000000000067e-01
-2.149999999999999967e-01
-2.250000000000000056e-01
-2.149999999999999967e-01
-2.149999999999999967e-01
-2.049999999999999878e-01
-2.149999999999999967e-01
-2.049999999999999878e-01
-1.950000000000000067e-01
-1.950000000000000067e-01
-1.950000000000000067e-01
-1.950000000000000067e-01
-1.749999999999999889e-01
-1.849999999999999978e-01
-1.849999999999999978e-01
-1.950000000000000067e-01
-1.849999999999999978e-01
-1.849999999999999978e-01
-1.950000000000000067e-01
-1.950000000000000067e-01
-1.950000000000000067e-01
-1.849999999999999978e-01
-2.049999999999999878e-01
-2.049999999999999878e-01
-1.950000000000000067e-01
-2.049999999999999878e-01
-2.149999999999999967e-01
-2.149999999999999967e-01
-2.149999999999999967e-01
-2.149999999999999967e-01
-2.149999999999999967e-01
-2.149999999999999967e-01
-1.950000000000000067e-01
-2.149999999999999967e-01
-2.149999999999999967e-01
-2.049999999999999878e-01
-2.149999999999999967e-01
-2.049999999999999878e-01
-2.149999999999999967e-01
-2.049999999999999878e-01
-1.950000000000000067e-01
-2.049999999999999878e-01
-2.049999999999999878e-01
-1.950000000000000067e-01
-1.950000000000000067e-01
-1.950000000000000067e-01
-1.950000000000000067e-01
-1.950000000000000067e-01
-1.749999999999999889e-01
-1.950000000000000067e-01
-1.650000000000000078e-01
-9.500000000000000111e-02
-9.500000000000000111e-02
-5.500000000000000028e-02
1.499999999999999944e-02
-8.500000000000000611e-02
-1.250000000000000000e-01
-1.549999999999999989e-01
-1.549999999999999989e-01
-1.650000000000000078e-01
-1.849999999999999978e-01
-1.849999999999999978e-01
-1.749999999999999889e-01
-1.749999999999999889e-01
-1.549999999999999989e-01
-1.749999999999999889e-01
-1.749999999999999889e-01
-1.650000000000000078e-01
-1.549999999999999989e-01
-1.449999999999999900e-01
-1.350000000000000089e-01
-2.250000000000000056e-01
-6.049999999999999822e-01
-4.949999999999999956e-01
9.549999999999999600e-01
2.234999999999999876e+00
2.705000000000000071e+00
2.424999999999999822e+00
7.750000000000000222e-01
-4.499999999999999833e-02
5.000000000000000104e-03
-5.500000000000000028e-02
-1.350000000000000089e-01
-1.749999999999999889e-01
-1.950000000000000067e-01
-2.049999999999999878e-01
-2.149999999999999967e-01
-2.149999999999999967e-01
-2.049999999999999878e-01
-2.049999999999999878e-01
-2.149999999999999967e-01
-1.950000000000000067e-01
-1.849999999999999978e-01
-1.849999999999999978e-01
-1.849999999999999978e-01
-1.650000000000000078e-01
-1.449999999999999900e-01
-1.350000000000000089e-01
-1.350000000000000089e-01
-1.049999999999999961e-01
-9.500000000000000111e-02
-6.500000000000000222e-02
-5.500000000000000028e-02
-5.000000000000000104e-03
4.499999999999999833e-02
7.499999999999999722e-02
1.150000000000000050e-01
1.749999999999999889e-01
2.349999999999999867e-01
2.849999999999999756e-01
3.250000000000000111e-01
3.850000000000000089e-01
4.450000000000000067e-01
4.650000000000000244e-01
4.550000000000000155e-01
4.249999999999999889e-01
3.449999999999999734e-01
2.349999999999999867e-01
1.049999999999999961e-01
1.499999999999999944e-02
-5.500000000000000028e-02
-1.350000000000000089e-01
-1.849999999999999978e-01
-1.849999999999999978e-01
-2.049999999999999878e-01
-1.950000000000000067e-01
-2.049999999999999878e-01
-1.950000000000000067e-01
-1.849999999999999978e-01
-1.950000000000000067e-01
-2.049999999999999878e-01
-1.749999999999999889e-01
-1.749999999999999889e-01
-1.749999999999999889e-01
-1.749999999999999889e-01
-1.650000000000000078e-01
-1.449999999999999900e-01
-1.650000000000000078e-01
-1.650000000000000078e-01
-1.650000000000000078e-01
-1.650000000000000078e-01
-1.650000000000000078e-01
-1.749999999999999889e-01
-1.650000000000000078e-01
-1.449999999999999900e-01
-1.749999999999999889e-01
-1.849999999999999978e-01
-1.849999999999999978e-01
-1.749999999999999889e-01
-1.849999999999999978e-01
-1.849999999999999978e-01
-1.849999999999999978e-01
-1.749999999999999889e-01
-1.849999999999999978e-01
-1.950000000000000067e-01
-1.849999999999999978e-01
-1.849999999999999978e-01
-1.849999999999999978e-01
-1.950000000000000067e-01
-1.749999999999999889e-01
-1.749999999999999889e-01
-1.749999999999999889e-01
-1.849999999999999978e-01
-1.749999999999999889e-01
-1.749999999999999889e-01
-1.749999999999999889e-01
-1.650000000000000078e-01
-1.849999999999999978e-01
-1.650000000000000078e-01
-1.549999999999999989e-01
-1.749999999999999889e-01
-1.549999999999999989e-01
-1.549999999999999989e-01
-1.549999999999999989e-01
-1.650000000000000078e-01
-1.650000000000000078e-01
-8.500000000000000611e-02
-5.500000000000000028e-02
-5.500000000000000028e-02
2.500000000000000139e-02
2.500000000000000139e-02
-7.499999999999999722e-02
-9.500000000000000111e-02
-1.250000000000000000e-01
-1.049999999999999961e-01
-1.650000000000000078e-01
-1.650000000000000078e-01
-1.549999999999999989e-01
-1.449999999999999900e-01
-1.449999999999999900e-01
-1.449999999999999900e-01
-1.449999999999999900e-01
-1.150000000000000050e-01
-1.350000000000000089e-01
-1.449999999999999900e-01
-1.350000000000000089e-01
-1.150000000000000050e-01
-9.500000000000000111e-02
-3.649999999999999911e-01
-6.049999999999999822e-01
-7.499999999999999722e-02
1.584999999999999964e+00
2.484999999999999876e+00
2.854999999999999982e+00
1.554999999999999938e+00
1.650000000000000078e-01
-2.500000000000000139e-02
5.000000000000000104e-03
-4.499999999999999833e-02
-1.150000000000000050e-01
-1.549999999999999989e-01
-1.650000000000000078e-01
-1.749999999999999889e-01
-1.749999999999999889e-01
-1.849999999999999978e-01
-1.849999999999999978e-01
-1.449999999999999900e-01
-1.650000000000000078e-01
-1.749999999999999889e-01
-1.549999999999999989e-01
-1.449999999999999900e-01
-1.449999999999999900e-01
-1.350000000000000089e-01
-1.049999999999999961e-01
-8.500000000000000611e-02
-8.500000000000000611e-02
-6.500000000000000222e-02
-3.500000000000000333e-02
1.499999999999999944e-02
3.500000000000000333e-02
8.500000000000000611e-02
1.150000000000000050e-01
1.749999999999999889e-01
2.250000000000000056e-01
2.849999999999999756e-01
3.350000000000000200e-01
3.750000000000000000e-01
4.349999999999999978e-01
4.849999999999999867e-01
5.050000000000000044e-01
5.250000000000000222e-01
4.550000000000000155e-01
3.850000000000000089e-01
2.650000000000000133e-01
1.650000000000000078e-01
5.500000000000000028e-02
-3.500000000000000333e-02
-1.150000000000000050e-01
-1.350000000000000089e-01
-1.549999999999999989e-01
-1.749999999999999889e-01
-1.749999999999999889e-01
-1.749999999999999889e-01
-1.650000000000000078e-01
-1.749999999999999889e-01
-1.749999999999999889e-01
-1.549999999999999989e-01
-1.650000000000000078e-01
-1.650000000000000078e-01
-1.549999999999999989e-01
-1.549999999999999989e-01
-1.549999999999999989e-01
-1.549999999999999989e-01
-1.549999999999999989e-01
-1.350000000000000089e-01
-1.549999999999999989e-01
-1.650000000000000078e-01
-1.549999999999999989e-01
-1.650000000000000078e-01
-1.549999999999999989e-01
-1.650000000000000078e-01
-1.749999999999999889e-01
-1.549999999999999989e-01
-1.650000000000000078e-01
-1.650000000000000078e-01
-1.749999999999999889e-01
-1.749999999999999889e-01
-1.749999999999999889e-01
-1.849999999999999978e-01
-1.749999999999999889e-01
-1.650000000000000078e-01
-1.849999999999999978e-01
-1.849999999999999978e-01
-1.749999999999999889e-01
-1.849999999999999978e-01
-1.749999999999999889e-01
-1.849999999999999978e-01
-1.749999999999999889e-01
-1.549999999999999989e-01
-1.650000000000000078e-01
-1.749999999999999889e-01
-1.650000000000000078e-01
-1.749999999999999889e-01
-1.849999999999999978e-01
-1.549999999999999989e-01
-8.500000000000000611e-02
-4.499999999999999833e-02
-2.500000000000000139e-02
-2.500000000000000139e-02
-7.499999999999999722e-02
-1.049999999999999961e-01
-1.449999999999999900e-01
-1.749999999999999889e-01
-1.849999999999999978e-01
-1.749999999999999889e-01
-1.749999999999999889e-01
-1.749999999999999889e-01
-1.650000000000000078e-01
-1.650000000000000078e-01
-1.549999999999999989e-01
-1.749999999999999889e-01
-1.749999999999999889e-01
-1.350000000000000089e-01
-1.449999999999999900e-01
-1.250000000000000000e-01
-1.250000000000000000e-01
-4.249999999999999889e-01
-6.049999999999999822e-01
-1.250000000000000000e-01
1.475000000000000089e+00
2.475000000000000089e+00
2.865000000000000213e+00
1.334999999999999964e+00
3.500000000000000333e-02
-3.500000000000000333e-02
-1.499999999999999944e-02
-9.500000000000000111e-02
-1.250000000000000000e-01
-1.449999999999999900e-01
-1.749999999999999889e-01
-1.849999999999999978e-01
-1.849999999999999978e-01
-1.849999999999999978e-01
-1.749999999999999889e-01
-1.749999999999999889e-01
-1.749999999999999889e-01
-1.650000000000000078e-01
-1.650000000000000078e-01
-1.749999999999999889e-01
-1.449999999999999900e-01
-1.350000000000000089e-01
-1.150000000000000050e-01
-1.150000000000000050e-01
-9.500000000000000111e-02
-5.500000000000000028e-02
-5.500000000000000028e-02
-4.499999999999999833e-02
-5.000000000000000104e-03
3.500000000000000333e-02
7.499999999999999722e-02
1.150000000000000050e-01
1.749999999999999889e-01
2.449999999999999956e-01
2.650000000000000133e-01
3.049999999999999933e-01
3.750000000000000000e-01
4.149999999999999800e-01
4.650000000000000244e-01
4.650000000000000244e-01
4.349999999999999978e-01
3.950000000000000178e-01
2.750000000000000222e-01
1.749999999999999889e-01
7.499999999999999722e-02
-2.500000000000000139e-02
-8.500000000000000611e-02
-1.549999999999999989e-01
-1.650000000000000078e-01
-1.650000000000000078e-01
-1.950000000000000067e-01
-2.049999999999999878e-01
-1.849999999999999978e-01
-1.950000000000000067e-01
-1.849999999999999978e-01
-2.049999999999999878e-01
-1.950000000000000067e-01
-1.650000000000000078e-01
-1.849999999999999978e-01
-1.950000000000000067e-01
-1.749999999999999889e-01
-1.849999999999999978e-01
-1.849999999999999978e-01
-1.849999999999999978e-01
-1.849999999999999978e-01
-1.549999999999999989e-01
-1.749999999999999889e-01
-2.049999999999999878e-01
-1.849999999999999978e-01
-1.950000000000000067e-01
-1.950000000000000067e-01
-2.149999999999999967e-01
-2.149999999999999967e-01
-1.849999999999999978e-01
-2.149999999999999967e-01
-2.250000000000000056e-01
-2.149999999999999967e-01
-2.149999999999999967e-01
-2.149999999999999967e-01
-2.250000000000000056e-01
-2.149999999999999967e-01
-2.049999999999999878e-01
-2.149999999999999967e-01
-2.250000000000000056e-01
-2.149999999999999967e-01
-2.149999999999999967e-01
-2.049999999999999878e-01
-2.149999999999999967e-01
-2.049999999999999878e-01
-1.849999999999999978e-01
-2.049999999999999878e-01
-2.049999999999999878e-01
-1.549999999999999989e-01
-1.049999999999999961e-01
-1.250000000000000000e-01
-5.500000000000000028e-02
-5.000000000000000104e-03
-1.049999999999999961e-01
-1.449999999999999900e-01
-1.650000000000000078e-01
-1.650000000000000078e-01
-1.950000000000000067e-01
-2.049999999999999878e-01
-2.049999999999999878e-01
-1.950000000000000067e-01
-1.849999999999999978e-01
-1.849999999999999978e-01
-1.950000000000000067e-01
-1.849999999999999978e-01
-1.849999999999999978e-01
-1.749999999999999889e-01
-1.749999999999999889e-01
-1.350000000000000089e-01
-2.650000000000000133e-01
-6.450000000000000178e-01
-3.950000000000000178e-01
1.245000000000000107e+00
2.314999999999999947e+00
2.725000000000000089e+00
2.504999999999999893e+00
6.949999999999999512e-01
-7.499999999999999722e-02
-2.500000000000000139e-02
-7.499999999999999722e-02
-1.250000000000000000e-01
-1.650000000000000078e-01
-1.950000000000000067e-01
-2.149999999999999967e-01
-2.049999999999999878e-01
-1.849999999999999978e-01
-2.149999999999999967e-01
-2.049999999999999878e-01
-2.049999999999999878e-01
-1.950000000000000067e-01
-1.950000000000000067e-01
-1.849999999999999978e-01
-1.950000000000000067e-01
-1.549999999999999989e-01
-1.650000000000000078e-01
-1.549999999999999989e-01
-1.250000000000000000e-01
-1.150000000000000050e-01
-1.049999999999999961e-01
-8.500000000000000611e-02
-5.500000000000000028e-02
5.000000000000000104e-03
3.500000000000000333e-02
6.500000000000000222e-02
1.150000000000000050e-01
1.749999999999999889e-01
2.250000000000000056e-01
2.750000000000000222e-01
3.250000000000000111e-01
3.950000000000000178e-01
4.149999999999999800e-01
4.450000000000000067e-01
4.650000000000000244e-01
4.249999999999999889e-01
3.549999999999999822e-01
2.449999999999999956e-01
1.350000000000000089e-01
3.500000000000000333e-02
-6.500000000000000222e-02
-1.350000000000000089e-01
-1.650000000000000078e-01
-1.849999999999999978e-01
-2.049999999999999878e-01
-2.049999999999999878e-01
-2.049999999999999878e-01
-1.950000000000000067e-01
-2.049999999999999878e-01
-2.049999999999999878e-01
-1.849999999999999978e-01
-1.849999999999999978e-01
-1.849999999999999978e-01
-1.849999999999999978e-01
-1.749999999999999889e-01
-1.549999999999999989e-01
-1.749999999999999889e-01
-1.749999999999999889e-01
-1.749999999999999889e-01
-1.650000000000000078e-01
-1.650000000000000078e-01
-1.749999999999999889e-01
-1.749999999999999889e-01
-1.650000000000000078e-01
-1.849999999999999978e-01
-1.950000000000000067e-01
-1.849999999999999978e-01
-1.849999999999999978e-01
-1.849999999999999978e-01
-1.950000000000000067e-01
-1.950000000000000067e-01
-1.950000000000000067e-01
-1.950000000000000067e-01
-2.049999999999999878e-01
-1.950000000000000067e-01
-1.950000000000000067e-01
-1.950000000000000067e-01
-1.849999999999999978e-01
-1.950000000000000067e-01
-1.849999999999999978e-01
-1.849999999999999978e-01
-1.950000000000000067e-01
-1.849999999999999978e-01
-1.849999999999999978e-01
-1.849999999999999978e-01
-1.849999999999999978e-01
-1.749999999999999889e-01
-1.549999999999999989e-01
-1.849999999999999978e-01
-1.250000000000000000e-01
-7.499999999999999722e-02
-7.499999999999999722e-02
5.000000000000000104e-03
1.499999999999999944e-02
-8.500000000000000611e-02
-1.250000000000000000e-01
-1.350000000000000089e-01
-1.350000000000000089e-01
-1.549999999999999989e-01
-1.650000000000000078e-01
-1.749999999999999889e-01
-1.849999999999999978e-01
-1.749999999999999889e-01
-1.549999999999999989e-01
-1.650000000000000078e-01
-1.849999999999999978e-01
-1.749999999999999889e-01
-1.549999999999999989e-01
-1.549999999999999989e-01
-1.549999999999999989e-01
-1.250000000000000000e-01
-1.749999999999999889e-01
-5.949999999999999734e-01
-5.649999999999999467e-01
7.149999999999999689e-01
2.084999999999999964e+00
2.665000000000000036e+00
2.575000000000000178e+00
8.850000000000000089e-01
-5.500000000000000028e-02
-2.500000000000000139e-02
-5.500000000000000028e-02
-1.150000000000000050e-01
-1.650000000000000078e-01
-1.849999999999999978e-01
-2.049999999999999878e-01
-1.950000000000000067e-01
-1.749999999999999889e-01
-2.049999999999999878e-01
-2.049999999999999878e-01
-1.950000000000000067e-01
-1.950000000000000067e-01
-1.849999999999999978e-01
-1.849999999999999978e-01
-1.650000000000000078e-01
-1.449999999999999900e-01
-1.449999999999999900e-01
-1.449999999999999900e-01
-1.250000000000000000e-01
-1.049999999999999961e-01
-7.499999999999999722e-02
-6.500000000000000222e-02
-2.500000000000000139e-02
2.500000000000000139e-02
4.499999999999999833e-02
8.500000000000000611e-02
1.350000000000000089e-01
1.950000000000000067e-01
2.550000000000000044e-01
2.949999999999999845e-01
3.449999999999999734e-01
4.149999999999999800e-01
4.450000000000000067e-01
4.650000000000000244e-01
4.650000000000000244e-01
4.149999999999999800e-01
3.350000000000000200e-01
2.250000000000000056e-01
1.250000000000000000e-01
2.500000000000000139e-02
-7.499999999999999722e-02
-1.549999999999999989e-01
-1.749999999999999889e-01
-1.950000000000000067e-01
-2.049999999999999878e-01
-2.250000000000000056e-01
-2.149999999999999967e-01
-1.950000000000000067e-01
-2.049999999999999878e-01
-2.149999999999999967e-01
-1.950000000000000067e-01
-1.950000000000000067e-01
-1.849999999999999978e-01
-1.950000000000000067e-01
-1.950000000000000067e-01
-1.749999999999999889e-01
-1.950000000000000067e-01
-1.950000000000000067e-01
-1.849999999999999978e-01
-1.950000000000000067e-01
-1.950000000000000067e-01
-2.049999999999999878e-01
-1.950000000000000067e-01
-1.849999999999999978e-01
-2.049999999999999878e-01
-2.149999999999999967e-01
-2.049999999999999878e-01
-2.149999999999999967e-01
-2.149999999999999967e-01
-2.349999999999999867e-01
-2.250000000000000056e-01
-2.149999999999999967e-01
-2.250000000000000056e-01
-2.250000000000000056e-01
-2.250000000000000056e-01
-2.250000000000000056e-01
-2.250000000000000056e-01
-2.349999999999999867e-01
-2.149999999999999967e-01
-2.149999999999999967e-01
-2.149999999999999967e-01
-2.250000000000000056e-01
-2.149999999999999967e-01
-2.250000000000000056e-01
-2.149999999999999967e-01
-2.250000000000000056e-01
-2.149999999999999967e-01
-2.250000000000000056e-01
-1.650000000000000078e-01
-1.350000000000000089e-01
-7.499999999999999722e-02
-4.499999999999999833e-02
-1.049999999999999961e-01
-1.549999999999999989e-01
-1.849999999999999978e-01
-1.749999999999999889e-01
-2.250000000000000056e-01
-2.349999999999999867e-01
-2.250000000000000056e-01
-2.149999999999999967e-01
-2.149999999999999967e-01
-2.149999999999999967e-01
-2.049999999999999878e-01
-1.950000000000000067e-01
-2.149999999999999967e-01
-2.250000000000000056e-01
-2.049999999999999878e-01
-2.049999999999999878e-01
-1.849999999999999978e-01
-1.650000000000000078e-01
-3.150000000000000022e-01
-6.550000000000000266e-01
-5.150000000000000133e-01
1.094999999999999973e+00
2.345000000000000195e+00
2.825000000000000178e+00
1.834999999999999964e+00
1.849999999999999978e-01
-1.250000000000000000e-01
-6.500000000000000222e-02
-1.350000000000000089e-01
-1.950000000000000067e-01
-2.149999999999999967e-01
-2.349999999999999867e-01
-2.349999999999999867e-01
-2.349999999999999867e-01
-2.449999999999999956e-01
-2.349999999999999867e-01
-2.449999999999999956e-01
-2.449999999999999956e-01
-2.250000000000000056e-01
-2.149999999999999967e-01
-2.149999999999999967e-01
-2.049999999999999878e-01
-1.950000000000000067e-01
-1.749999999999999889e-01
-1.650000000000000078e-01
-1.549999999999999989e-01
-1.350000000000000089e-01
-1.049999999999999961e-01
-7.499999999999999722e-02
-5.500000000000000028e-02
-1.499999999999999944e-02
4.499999999999999833e-02
8.500000000000000611e-02
1.250000000000000000e-01
1.950000000000000067e-01
2.550000000000000044e-01
2.949999999999999845e-01
3.350000000000000200e-01
3.750000000000000000e-01
4.349999999999999978e-01
4.349999999999999978e-01
4.050000000000000266e-01
3.350000000000000200e-01
2.250000000000000056e-01
1.049999999999999961e-01
-1.499999999999999944e-02
-1.049999999999999961e-01
-1.549999999999999989e-01
-1.950000000000000067e-01
-2.250000000000000056e-01
-2.349999999999999867e-01
-2.449999999999999956e-01
-2.349999999999999867e-01
-2.550000000000000044e-01
-2.449999999999999956e-01
-2.349999999999999867e-01
-2.449999999999999956e-01
-2.449999999999999956e-01
-2.349999999999999867e-01
-2.349999999999999867e-01
-2.149999999999999967e-01
-2.149999999999999967e-01
-2.250000000000000056e-01
-2.049999999999999878e-01
-2.250000000000000056e-01
-2.250000000000000056e-01
-2.149999999999999967e-01
-2.149999999999999967e-01
-2.250000000000000056e-01
-2.349999999999999867e-01
-2.349999999999999867e-01
-2.250000000000000056e-01
-2.349999999999999867e-01
-2.349999999999999867e-01
-2.449999999999999956e-01
-2.349999999999999867e-01
-2.449999999999999956e-01
-2.449999999999999956e-01
-2.349999999999999867e-01
-2.349999999999999867e-01
-2.550000000000000044e-01
-2.550000000000000044e-01
-2.650000000000000133e-01
-2.449999999999999956e-01
-2.349999999999999867e-01
-2.550000000000000044e-01
-2.449999999999999956e-01
-2.349999999999999867e-01
-2.349999999999999867e-01
-2.650000000000000133e-01
-2.550000000000000044e-01
-1.749999999999999889e-01
-1.449999999999999900e-01
-9.500000000000000111e-02
-9.500000000000000111e-02
-1.049999999999999961e-01
-1.650000000000000078e-01
-2.250000000000000056e-01
-2.250000000000000056e-01
-2.449999999999999956e-01
-2.250000000000000056e-01
-2.349999999999999867e-01
-2.349999999999999867e-01
-2.049999999999999878e-01
-2.250000000000000056e-01
-2.250000000000000056e-01
-2.250000000000000056e-01
-2.250000000000000056e-01
-2.049999999999999878e-01
-2.149999999999999967e-01
-2.049999999999999878e-01
-1.549999999999999989e-01
-1.549999999999999989e-01
-4.650000000000000244e-01
-6.450000000000000178e-01
-1.499999999999999944e-02
1.534999999999999920e+00
2.424999999999999822e+00
2.805000000000000160e+00
1.445000000000000062e+00
2.500000000000000139e-02
-9.500000000000000111e-02
-7.499999999999999722e-02
-1.350000000000000089e-01
-1.849999999999999978e-01
-2.149999999999999967e-01
-2.149999999999999967e-01
-1.950000000000000067e-01
-2.149999999999999967e-01
-2.149999999999999967e-01
-2.149999999999999967e-01
-2.049999999999999878e-01
-2.049999999999999878e-01
-2.049999999999999878e-01
-1.950000000000000067e-01
-1.749999999999999889e-01
-1.749999999999999889e-01
-1.650000000000000078e-01
-1.549999999999999989e-01
-1.449999999999999900e-01
-1.150000000000000050e-01
-9.500000000000000111e-02
-7.499999999999999722e-02
-2.500000000000000139e-02
-1.499999999999999944e-02
1.499999999999999944e-02
6.500000000000000222e-02
1.150000000000000050e-01
1.749999999999999889e-01
2.149999999999999967e-01
2.650000000000000133e-01
3.250000000000000111e-01
3.649999999999999911e-01
3.950000000000000178e-01
4.249999999999999889e-01
4.349999999999999978e-01
3.850000000000000089e-01
3.049999999999999933e-01
2.049999999999999878e-01
9.500000000000000111e-02
-5.000000000000000104e-03
-9.500000000000000111e-02
-1.449999999999999900e-01
-1.749999999999999889e-01
-1.950000000000000067e-01
-2.049999999999999878e-01
-2.149999999999999967e-01
-2.049999999999999878e-01
-2.049999999999999878e-01
-2.149999999999999967e-01
-2.049999999999999878e-01
-1.950000000000000067e-01
-1.950000000000000067e-01
-2.049999999999999878e-01
-1.950000000000000067e-01
-1.749999999999999889e-01
-1.849999999999999978e-01
-2.049999999999999878e-01
-2.049999999999999878e-01
-1.950000000000000067e-01
-1.950000000000000067e-01
-1.950000000000000067e-01
-2.049999999999999878e-01
-1.849999999999999978e-01
-2.049999999999999878e-01
-2.250000000000000056e-01
-2.250000000000000056e-01
-2.149999999999999967e-01
-2.250000000000000056e-01
-2.250000000000000056e-01
-2.250000000000000056e-01
-2.149999999999999967e-01
-2.349999999999999867e-01
-2.449999999999999956e-01
-2.349999999999999867e-01
-2.250000000000000056e-01
-2.349999999999999867e-01
-2.349999999999999867e-01
-2.349999999999999867e-01
-2.250000000000000056e-01
-2.250000000000000056e-01
-2.349999999999999867e-01
-2.250000000000000056e-01
-2.250000000000000056e-01
-2.250000000000000056e-01
-1.749999999999999889e-01
-1.350000000000000089e-01
-1.250000000000000000e-01
-4.499999999999999833e-02
-6.500000000000000222e-02
-1.650000000000000078e-01
-1.749999999999999889e-01
-1.849999999999999978e-01
-2.049999999999999878e-01
-2.250000000000000056e-01
-2.149999999999999967e-01
-2.349999999999999867e-01
-2.449999999999999956e-01
-2.250000000000000056e-01
-2.250000000000000056e-01
-2.349999999999999867e-01
-2.349999999999999867e-01
-2.250000000000000056e-01
-2.049999999999999878e-01
-2.049999999999999878e-01
-1.950000000000000067e-01
-1.549999999999999989e-01
-3.850000000000000089e-01
-6.650000000000000355e-01
-2.449999999999999956e-01
1.445000000000000062e+00
2.444999999999999840e+00
2.834999999999999964e+00
1.625000000000000000e+00
1.150000000000000050e-01
-9.500000000000000111e-02
-5.500000000000000028e-02
-1.449999999999999900e-01
-1.950000000000000067e-01
-2.149999999999999967e-01
-2.349999999999999867e-01
-2.449999999999999956e-01
-2.449999999999999956e-01
-2.349999999999999867e-01
-2.349999999999999867e-01
-2.349999999999999867e-01
-2.349999999999999867e-01
-2.250000000000000056e-01
-2.049999999999999878e-01
-2.049999999999999878e-01
-1.849999999999999978e-01
-1.849999999999999978e-01
-1.749999999999999889e-01
-1.650000000000000078e-01
-1.549999999999999989e-01
-1.250000000000000000e-01
-9.500000000000000111e-02
-7.499999999999999722e-02
-4.499999999999999833e-02
-5.000000000000000104e-03
3.500000000000000333e-02
8.500000000000000611e-02
1.350000000000000089e-01
1.950000000000000067e-01
2.550000000000000044e-01
2.949999999999999845e-01
3.350000000000000200e-01
3.850000000000000089e-01
4.349999999999999978e-01
4.349999999999999978e-01
4.050000000000000266e-01
3.449999999999999734e-01
2.650000000000000133e-01
1.350000000000000089e-01
2.500000000000000139e-02
-6.500000000000000222e-02
-1.250000000000000000e-01
-1.849999999999999978e-01
-2.049999999999999878e-01
-1.950000000000000067e-01
-2.149999999999999967e-01
-2.250000000000000056e-01
-2.250000000000000056e-01
-2.250000000000000056e-01
-2.149999999999999967e-01
-2.250000000000000056e-01
-2.149999999999999967e-01
-1.849999999999999978e-01
-2.049999999999999878e-01
-2.049999999999999878e-01
-1.950000000000000067e-01
-1.950000000000000067e-01
-1.950000000000000067e-01
-1.950000000000000067e-01
-1.950000000000000067e-01
-1.749999999999999889e-01
-1.950000000000000067e-01
-1.950000000000000067e-01
-1.950000000000000067e-01
-1.950000000000000067e-01
-1.950000000000000067e-01
-2.149999999999999967e-01
-2.049999999999999878e-01
-1.950000000000000067e-01
-2.149999999999999967e-01
-2.349999999999999867e-01
-2.250000000000000056e-01
-2.149999999999999967e-01
-2.149999999999999967e-01
-2.250000000000000056e-01
-2.149999999999999967e-01
-2.049999999999999878e-01
-2.149999999999999967e-01
-2.250000000000000056e-01
-2.149999999999999967e-01
-2.149999999999999967e-01
-2.049999999999999878e-01
-2.149999999999999967e-01
-2.149999999999999967e-01
-1.950000000000000067e-01
-2.049999999999999878e-01
-2.149999999999999967e-01
-2.049999999999999878e-01
-1.950000000000000067e-01
-1.449999999999999900e-01
-1.150000000000000050e-01
-1.049999999999999961e-01
1.499999999999999944e-02
-3.500000000000000333e-02
-1.650000000000000078e-01
-1.549999999999999989e-01
-1.650000000000000078e-01
-1.650000000000000078e-01
-2.049999999999999878e-01
-2.149999999999999967e-01
-1.950000000000000067e-01
-2.049999999999999878e-01
-2.149999999999999967e-01
-2.049999999999999878e-01
-1.950000000000000067e-01
-2.049999999999999878e-01
-2.049999999999999878e-01
-1.950000000000000067e-01
-1.849999999999999978e-01
-1.749999999999999889e-01
-1.650000000000000078e-01
-1.350000000000000089e-01
-3.150000000000000022e-01
-6.450000000000000178e-01
-4.450000000000000067e-01
9.649999999999999689e-01
2.214999999999999858e+00
2.685000000000000053e+00
2.395000000000000018e+00
6.149999999999999911e-01
-9.500000000000000111e-02
-5.500000000000000028e-02
-1.150000000000000050e-01
-1.749999999999999889e-01
-1.950000000000000067e-01
-2.049999999999999878e-01
-2.250000000000000056e-01
-2.149999999999999967e-01
-2.149999999999999967e-01
-2.149999999999999967e-01
-2.149999999999999967e-01
-2.149999999999999967e-01
-2.049999999999999878e-01
-2.049999999999999878e-01
-2.049999999999999878e-01
-1.849999999999999978e-01
-1.650000000000000078e-01
-1.549999999999999989e-01
-1.449999999999999900e-01
-1.350000000000000089e-01
-9.500000000000000111e-02
-9.500000000000000111e-02
-6.500000000000000222e-02
-3.500000000000000333e-02
5.000000000000000104e-03
4.499999999999999833e-02
8.500000000000000611e-02
1.350000000000000089e-01
2.049999999999999878e-01
2.550000000000000044e-01
2.949999999999999845e-01
3.549999999999999822e-01
3.950000000000000178e-01
4.450000000000000067e-01
4.550000000000000155e-01
4.550000000000000155e-01
3.950000000000000178e-01
2.949999999999999845e-01
1.849999999999999978e-01
7.499999999999999722e-02
-2.500000000000000139e-02
-9.500000000000000111e-02
-1.549999999999999989e-01
-1.749999999999999889e-01
-1.650000000000000078e-01
-1.950000000000000067e-01
-2.049999999999999878e-01
-1.950000000000000067e-01
-1.950000000000000067e-01
-1.950000000000000067e-01
-2.049999999999999878e-01
-1.849999999999999978e-01
-1.650000000000000078e-01
-1.749999999999999889e-01
-1.849999999999999978e-01
-1.749999999999999889e-01
-1.650000000000000078e-01
-1.749999999999999889e-01
-1.849999999999999978e-01
-1.749999999999999889e-01
-1.749999999999999889e-01
-1.749999999999999889e-01
-1.849999999999999978e-01
-1.749999999999999889e-01
-1.749999999999999889e-01
-1.749999999999999889e-01
-1.849999999999999978e-01
-1.950000000000000067e-01
-1.849999999999999978e-01
-1.950000000000000067e-01
-1.950000000000000067e-01
-1.950000000000000067e-01
-1.950000000000000067e-01
-1.950000000000000067e-01
-2.049999999999999878e-01
-2.049999999999999878e-01
-1.950000000000000067e-01
-2.049999999999999878e-01
-2.049999999999999878e-01
-1.950000000000000067e-01
-1.950000000000000067e-01
-1.950000000000000067e-01
-1.950000000000000067e-01
-1.950000000000000067e-01
-1.849999999999999978e-01
-1.849999999999999978e-01
-1.849999999999999978e-01
-1.749999999999999889e-01
-1.849999999999999978e-01
-1.650000000000000078e-01
-1.049999999999999961e-01
-1.049999999999999961e-01
-4.499999999999999833e-02
2.500000000000000139e-02
-6.500000000000000222e-02
-1.250000000000000000e-01
-1.350000000000000089e-01
-1.449999999999999900e-01
-1.749999999999999889e-01
-1.849999999999999978e-01
-1.749999999999999889e-01
-1.849999999999999978e-01
-1.749999999999999889e-01
-1.650000000000000078e-01
-1.749999999999999889e-01
-1.650000000000000078e-01
-1.749999999999999889e-01
-1.749999999999999889e-01
-1.549999999999999989e-01
-1.549999999999999989e-01
-1.549999999999999989e-01
-1.350000000000000089e-01
-1.150000000000000050e-01
-9.500000000000000111e-02
-4.249999999999999889e-01
-6.250000000000000000e-01
5.000000000000000104e-03
1.604999999999999982e+00
2.504999999999999893e+00
2.825000000000000178e+00
1.715000000000000080e+00
2.250000000000000056e-01
-3.500000000000000333e-02
-3.500000000000000333e-02
-8.500000000000000611e-02
-1.350000000000000089e-01
-1.749999999999999889e-01
-1.749999999999999889e-01
-1.749999999999999889e-01
-1.849999999999999978e-01
-1.849999999999999978e-01
-1.849999999999999978e-01
-1.650000000000000078e-01
-1.749999999999999889e-01
-1.849999999999999978e-01
-1.650000000000000078e-01
-1.449999999999999900e-01
-1.449999999999999900e-01
-1.449999999999999900e-01
-1.250000000000000000e-01
-9.500000000000000111e-02
-9.500000000000000111e-02
-8.500000000000000611e-02
-5.500000000000000028e-02
-3.500000000000000333e-02
5.000000000000000104e-03
2.500000000000000139e-02
7.499999999999999722e-02
1.449999999999999900e-01
1.650000000000000078e-01
2.149999999999999967e-01
2.750000000000000222e-01
3.250000000000000111e-01
3.750000000000000000e-01
4.149999999999999800e-01
4.650000000000000244e-01
5.150000000000000133e-01
4.749999999999999778e-01
4.149999999999999800e-01
3.350000000000000200e-01
2.149999999999999967e-01
9.500000000000000111e-02
-2.500000000000000139e-02
-7.499999999999999722e-02
-1.049999999999999961e-01
-1.350000000000000089e-01
-1.749999999999999889e-01
-1.749999999999999889e-01
-1.749999999999999889e-01
-1.749999999999999889e-01
-1.749999999999999889e-01
-1.650000000000000078e-01
-1.549999999999999989e-01
-1.549999999999999989e-01
-1.650000000000000078e-01
-1.549999999999999989e-01
-1.549999999999999989e-01
-1.350000000000000089e-01
-1.449999999999999900e-01
-1.350000000000000089e-01
-1.350000000000000089e-01
-1.449999999999999900e-01
-1.549999999999999989e-01
-1.449999999999999900e-01
-1.449999999999999900e-01
-1.449999999999999900e-01
-1.549999999999999989e-01
-1.650000000000000078e-01
-1.650000000000000078e-01
-1.650000000000000078e-01
-1.749999999999999889e-01
-1.650000000000000078e-01
-1.749999999999999889e-01
-1.849999999999999978e-01
-1.749999999999999889e-01
-1.650000000000000078e-01
-1.749999999999999889e-01
-1.749999999999999889e-01
-1.749999999999999889e-01
-1.650000000000000078e-01
-1.650000000000000078e-01
-1.749999999999999889e-01
-1.749999999999999889e-01
-1.749999999999999889e-01
-1.650000000000000078e-01
-1.650000000000000078e-01
-1.749999999999999889e-01
-1.549999999999999989e-01
-1.549999999999999989e-01
-1.549999999999999989e-01
-1.549999999999999989e-01
-9.500000000000000111e-02
-7.499999999999999722e-02
-6.500000000000000222e-02
3.500000000000000333e-02
5.000000000000000104e-03
-8.500000000000000611e-02
-1.150000000000000050e-01
-1.350000000000000089e-01
-1.449999999999999900e-01
-1.350000000000000089e-01
-1.650000000000000078e-01
-1.749999999999999889e-01
-1.549999999999999989e-01
-1.549999999999999989e-01
-1.549999999999999989e-01
-1.650000000000000078e-01
-1.650000000000000078e-01
-1.350000000000000089e-01
-1.449999999999999900e-01
-1.549999999999999989e-01
-1.350000000000000089e-01
-1.350000000000000089e-01
-1.049999999999999961e-01
-1.350000000000000089e-01
-4.849999999999999867e-01
-5.550000000000000488e-01
4.050000000000000266e-01
1.905000000000000027e+00
2.634999999999999787e+00
2.685000000000000053e+00
9.449999999999999512e-01
-5.500000000000000028e-02
-5.000000000000000104e-03
-5.000000000000000104e-03
-9.500000000000000111e-02
-1.449999999999999900e-01
-1.650000000000000078e-01
-1.650000000000000078e-01
-1.650000000000000078e-01
-1.749999999999999889e-01
-1.650000000000000078e-01
-1.650000000000000078e-01
-1.650000000000000078e-01
-1.650000000000000078e-01
-1.549999999999999989e-01
-1.549999999999999989e-01
-1.449999999999999900e-01
-1.449999999999999900e-01
-1.150000000000000050e-01
-9.500000000000000111e-02
-8.500000000000000611e-02
-6.500000000000000222e-02
-4.499999999999999833e-02
-2.500000000000000139e-02
1.499999999999999944e-02
4.499999999999999833e-02
8.500000000000000611e-02
1.350000000000000089e-01
1.849999999999999978e-01
2.250000000000000056e-01
2.849999999999999756e-01
3.250000000000000111e-01
3.750000000000000000e-01
4.149999999999999800e-01
4.550000000000000155e-01
4.949999999999999956e-01
4.849999999999999867e-01
4.349999999999999978e-01
3.449999999999999734e-01
2.349999999999999867e-01
1.250000000000000000e-01
1.499999999999999944e-02
-6.500000000000000222e-02
-1.150000000000000050e-01
-1.549999999999999989e-01
-1.650000000000000078e-01
-1.549999999999999989e-01
-1.650000000000000078e-01
-1.749999999999999889e-01
-1.849999999999999978e-01
-1.849999999999999978e-01
-1.650000000000000078e-01
-1.650000000000000078e-01
-1.650000000000000078e-01
-1.449999999999999900e-01
-1.449999999999999900e-01
-1.449999999999999900e-01
-1.549999999999999989e-01
-1.650000000000000078e-01
-1.549999999999999989e-01
-1.449999999999999900e-01
-1.549999999999999989e-01
-1.549999999999999989e-01
-1.650000000000000078e-01
-1.650000000000000078e-01
-1.650000000000000078e-01
-1.650000000000000078e-01
-1.549999999999999989e-01
-1.849999999999999978e-01
-1.749999999999999889e-01
-1.849999999999999978e-01
-1.849999999999999978e-01
-1.749999999999999889e-01
-1.950000000000000067e-01
-1.950000000000000067e-01
-1.650000000000000078e-01
-1.849999999999999978e-01
-1.950000000000000067e-01
-1.849999999999999978e-01
-1.849999999999999978e-01
-1.950000000000000067e-01
-1.950000000000000067e-01
-1.849999999999999978e-01
-1.549999999999999989e-01
-1.849999999999999978e-01
-1.950000000000000067e-01
-1.950000000000000067e-01
-1.950000000000000067e-01
-1.849999999999999978e-01
-1.650000000000000078e-01
-1.049999999999999961e-01
-8.500000000000000611e-02
-2.500000000000000139e-02
5.000000000000000104e-03
-8.500000000000000611e-02
-1.150000000000000050e-01
-1.449999999999999900e-01
-1.749999999999999889e-01
-1.849999999999999978e-01
-1.749999999999999889e-01
-1.749999999999999889e-01
-1.749999999999999889e-01
-1.749999999999999889e-01
-1.849999999999999978e-01
-1.650000000000000078e-01
-1.849999999999999978e-01
-1.749999999999999889e-01
-1.549999999999999989e-01
-1.749999999999999889e-01
-1.650000000000000078e-01
-1.449999999999999900e-01
-1.350000000000000089e-01
-8.500000000000000611e-02
-2.250000000000000056e-01
-5.649999999999999467e-01
-4.050000000000000266e-01
8.850000000000000089e-01
2.095000000000000195e+00
2.705000000000000071e+00
2.535000000000000142e+00
7.349999999999999867e-01
-6.500000000000000222e-02
5.000000000000000104e-03
-5.000000000000000104e-03
-8.500000000000000611e-02
-1.549999999999999989e-01
-1.650000000000000078e-01
-1.749999999999999889e-01
-1.650000000000000078e-01
-1.650000000000000078e-01
-1.749999999999999889e-01
-1.650000000000000078e-01
-1.650000000000000078e-01
-1.650000000000000078e-01
-1.350000000000000089e-01
-1.449999999999999900e-01
-1.350000000000000089e-01
-1.350000000000000089e-01
-1.250000000000000000e-01
-8.500000000000000611e-02
-8.500000000000000611e-02
-8.500000000000000611e-02
-4.499999999999999833e-02
-1.499999999999999944e-02
1.499999999999999944e-02
3.500000000000000333e-02
9.500000000000000111e-02
1.449999999999999900e-01
1.950000000000000067e-01
2.349999999999999867e-01
2.849999999999999756e-01
3.350000000000000200e-01
3.850000000000000089e-01
4.149999999999999800e-01
4.550000000000000155e-01
4.949999999999999956e-01
4.749999999999999778e-01
4.050000000000000266e-01
3.150000000000000022e-01
2.250000000000000056e-01
1.049999999999999961e-01
5.000000000000000104e-03
-5.500000000000000028e-02
-8.500000000000000611e-02
-1.449999999999999900e-01
-1.650000000000000078e-01
-1.650000000000000078e-01
-1.749999999999999889e-01
-1.749999999999999889e-01
-1.749999999999999889e-01
-1.650000000000000078e-01
-1.449999999999999900e-01
-1.549999999999999989e-01
-1.749999999999999889e-01
-1.549999999999999989e-01
-1.449999999999999900e-01
-1.449999999999999900e-01
-1.650000000000000078e-01
-1.549999999999999989e-01
-1.250000000000000000e-01
-1.549999999999999989e-01
-1.650000000000000078e-01
-1.549999999999999989e-01
-1.749999999999999889e-01
-1.749999999999999889e-01
-1.749999999999999889e-01
-1.749999999999999889e-01
-1.650000000000000078e-01
-1.849999999999999978e-01
-1.950000000000000067e-01
-1.849999999999999978e-01
-1.849999999999999978e-01
-1.849999999999999978e-01
-1.950000000000000067e-01
-1.950000000000000067e-01
-1.650000000000000078e-01
-1.849999999999999978e-01
-1.950000000000000067e-01
-1.849999999999999978e-01
-1.950000000000000067e-01
-1.849999999999999978e-01
-1.950000000000000067e-01
-1.849999999999999978e-01
-1.749999999999999889e-01
-1.849999999999999978e-01
-1.749999999999999889e-01
-1.049999999999999961e-01
-9.500000000000000111e-02
-8.500000000000000611e-02
1.499999999999999944e-02
-5.500000000000000028e-02
-1.150000000000000050e-01
-1.449999999999999900e-01
-1.449999999999999900e-01
-1.549999999999999989e-01
-1.950000000000000067e-01
-1.849999999999999978e-01
-1.849999999999999978e-01
-1.849999999999999978e-01
-1.650000000000000078e-01
-1.749999999999999889e-01
-1.849999999999999978e-01
-1.749999999999999889e-01
-1.749999999999999889e-01
-1.650000000000000078e-01
-1.650000000000000078e-01
-1.449999999999999900e-01
-1.150000000000000050e-01
-1.650000000000000078e-01
-5.649999999999999467e-01
-5.450000000000000400e-01
5.450000000000000400e-01
2.044999999999999929e+00
2.705000000000000071e+00
2.615000000000000213e+00
9.150000000000000355e-01
-4.499999999999999833e-02
-1.499999999999999944e-02
-3.500000000000000333e-02
-1.049999999999999961e-01
-1.549999999999999989e-01
-1.849999999999999978e-01
-1.950000000000000067e-01
-1.849999999999999978e-01
-1.950000000000000067e-01
-1.950000000000000067e-01
-1.849999999999999978e-01
-1.749999999999999889e-01
-1.749999999999999889e-01
-1.849999999999999978e-01
-1.749999999999999889e-01
-1.449999999999999900e-01
-1.650000000000000078e-01
-1.549999999999999989e-01
-1.350000000000000089e-01
-1.150000000000000050e-01
-9.500000000000000111e-02
-8.500000000000000611e-02
-4.499999999999999833e-02
-2.500000000000000139e-02
5.000000000000000104e-03
4.499999999999999833e-02
8.500000000000000611e-02
1.350000000000000089e-01
1.950000000000000067e-01
2.449999999999999956e-01
3.049999999999999933e-01
3.649999999999999911e-01
3.950000000000000178e-01
4.349999999999999978e-01
4.749999999999999778e-01
4.849999999999999867e-01
4.450000000000000067e-01
3.549999999999999822e-01
2.550000000000000044e-01
1.549999999999999989e-01
1.499999999999999944e-02
-7.499999999999999722e-02
-1.350000000000000089e-01
-1.549999999999999989e-01
-1.849999999999999978e-01
-1.849999999999999978e-01
-1.950000000000000067e-01
-1.849999999999999978e-01
-1.950000000000000067e-01
-1.950000000000000067e-01
-1.849999999999999978e-01
-1.849999999999999978e-01
-1.849999999999999978e-01
-1.849999999999999978e-01
-1.849999999999999978e-01
-1.549999999999999989e-01
-1.650000000000000078e-01
-1.749999999999999889e-01
-1.749999999999999889e-01
-1.749999999999999889e-01
-1.650000000000000078e-01
-1.749999999999999889e-01
-1.650000000000000078e-01
-1.549999999999999989e-01
-1.749999999999999889e-01
-1.849999999999999978e-01
-1.849999999999999978e-01
-1.849999999999999978e-01
-1.849999999999999978e-01
-1.950000000000000067e-01
-1.950000000000000067e-01
-1.849999999999999978e-01
-1.950000000000000067e-01
-2.049999999999999878e-01
-2.049999999999999878e-01
-2.049999999999999878e-01
-1.950000000000000067e-01
-2.049999999999999878e-01
-1.950000000000000067e-01
-1.849999999999999978e-01
-1.950000000000000067e-01
-2.049999999999999878e-01
-1.849999999999999978e-01
-1.849999999999999978e-01
-1.849999999999999978e-01
-1.950000000000000067e-01
-1.849999999999999978e-01
-1.650000000000000078e-01
-1.849999999999999978e-01
-1.849999999999999978e-01
-1.849999999999999978e-01
-1.650000000000000078e-01
-9.500000000000000111e-02
-9.500000000000000111e-02
-6.500000000000000222e-02
4.499999999999999833e-02
-5.500000000000000028e-02
-1.350000000000000089e-01
-1.449999999999999900e-01
-1.350000000000000089e-01
-1.749999999999999889e-01
-1.849999999999999978e-01
-1.749999999999999889e-01
-1.650000000000000078e-01
-1.749999999999999889e-01
-1.849999999999999978e-01
-1.849999999999999978e-01
-1.749999999999999889e-01
-1.749999999999999889e-01
-1.749999999999999889e-01
-1.749999999999999889e-01
-1.549999999999999989e-01
-1.449999999999999900e-01
-1.350000000000000089e-01
-1.749999999999999889e-01
-5.749999999999999556e-01
-5.949999999999999734e-01
7.249999999999999778e-01
2.134999999999999787e+00
2.745000000000000107e+00
2.544999999999999929e+00
6.949999999999999512e-01
-8.500000000000000611e-02
-3.500000000000000333e-02
-8.500000000000000611e-02
-1.449999999999999900e-01
-1.650000000000000078e-01
-1.849999999999999978e-01
-2.049999999999999878e-01
-2.149999999999999967e-01
-2.049999999999999878e-01
-2.049999999999999878e-01
-1.950000000000000067e-01
-2.049999999999999878e-01
-2.049999999999999878e-01
-1.749999999999999889e-01
-1.950000000000000067e-01
-2.049999999999999878e-01
-1.749999999999999889e-01
-1.549999999999999989e-01
-1.449999999999999900e-01
-1.449999999999999900e-01
-1.150000000000000050e-01
-8.500000000000000611e-02
-7.499999999999999722e-02
-5.500000000000000028e-02
-1.499999999999999944e-02
1.499999999999999944e-02
5.500000000000000028e-02
1.049999999999999961e-01
1.549999999999999989e-01
2.149999999999999967e-01
2.650000000000000133e-01
2.949999999999999845e-01
3.549999999999999822e-01
4.050000000000000266e-01
4.349999999999999978e-01
4.550000000000000155e-01
4.249999999999999889e-01
3.649999999999999911e-01
2.650000000000000133e-01
1.449999999999999900e-01
4.499999999999999833e-02
-4.499999999999999833e-02
-1.250000000000000000e-01
-1.749999999999999889e-01
-2.049999999999999878e-01
-1.849999999999999978e-01
-2.049999999999999878e-01
-2.149999999999999967e-01
-2.149999999999999967e-01
-2.049999999999999878e-01
-2.049999999999999878e-01
-2.049999999999999878e-01
-1.950000000000000067e-01
-1.749999999999999889e-01
-1.950000000000000067e-01
-1.950000000000000067e-01
-1.849999999999999978e-01
-1.950000000000000067e-01
-1.849999999999999978e-01
-1.950000000000000067e-01
-1.849999999999999978e-01
-1.749999999999999889e-01
-1.950000000000000067e-01
-2.049999999999999878e-01
-1.950000000000000067e-01
-2.049999999999999878e-01
-2.049999999999999878e-01
-2.149999999999999967e-01
-2.149999999999999967e-01
-1.950000000000000067e-01
-2.149999999999999967e-01
-2.250000000000000056e-01
-2.250000000000000056e-01
-2.250000000000000056e-01
-2.149999999999999967e-01
-2.250000000000000056e-01
-2.349999999999999867e-01
-2.149999999999999967e-01
-2.149999999999999967e-01
-2.250000000000000056e-01
-2.250000000000000056e-01
-2.149999999999999967e-01
-2.149999999999999967e-01
-2.250000000000000056e-01
-2.149999999999999967e-01
-2.049999999999999878e-01
-2.149999999999999967e-01
-2.149999999999999967e-01
-2.049999999999999878e-01
-2.149999999999999967e-01
-2.149999999999999967e-01
-2.149999999999999967e-01
-1.749999999999999889e-01
-1.049999999999999961e-01
-1.350000000000000089e-01
-4.499999999999999833e-02
-5.000000000000000104e-03
-1.150000000000000050e-01
-1.549999999999999989e-01
-1.749999999999999889e-01
-1.849999999999999978e-01
-1.950000000000000067e-01
-2.149999999999999967e-01
-2.149999999999999967e-01
-1.950000000000000067e-01
-2.049999999999999878e-01
-2.049999999999999878e-01
-2.149999999999999967e-01
-2.049999999999999878e-01
-1.950000000000000067e-01
-2.049999999999999878e-01
-2.049999999999999878e-01
-1.749999999999999889e-01
-1.749999999999999889e-01
-1.549999999999999989e-01
-2.049999999999999878e-01
-5.550000000000000488e-01
-6.350000000000000089e-01
1.749999999999999889e-01
1.745000000000000107e+00
2.575000000000000178e+00
2.785000000000000142e+00
1.205000000000000071e+00
-2.500000000000000139e-02
-6.500000000000000222e-02
-5.500000000000000028e-02
-1.350000000000000089e-01
-1.950000000000000067e-01
-2.149999999999999967e-01
-2.349999999999999867e-01
-2.250000000000000056e-01
-2.349999999999999867e-01
-2.250000000000000056e-01
-2.149999999999999967e-01
-2.250000000000000056e-01
-2.349999999999999867e-01
-2.149999999999999967e-01
-2.149999999999999967e-01
-1.950000000000000067e-01
-1.849999999999999978e-01
-1.749999999999999889e-01
-1.549999999999999989e-01
-1.549999999999999989e-01
-1.350000000000000089e-01
-1.150000000000000050e-01
-9.500000000000000111e-02
-5.500000000000000028e-02
-3.500000000000000333e-02
5.000000000000000104e-03
6.500000000000000222e-02
9.500000000000000111e-02
1.350000000000000089e-01
2.049999999999999878e-01
2.550000000000000044e-01
3.150000000000000022e-01
3.449999999999999734e-01
4.050000000000000266e-01
4.650000000000000244e-01
4.749999999999999778e-01
4.249999999999999889e-01
3.449999999999999734e-01
2.550000000000000044e-01
1.350000000000000089e-01
2.500000000000000139e-02
-7.499999999999999722e-02
-1.150000000000000050e-01
-1.749999999999999889e-01
-1.950000000000000067e-01
-2.049999999999999878e-01
-2.149999999999999967e-01
-2.149999999999999967e-01
-2.250000000000000056e-01
-2.250000000000000056e-01
-1.950000000000000067e-01
-1.950000000000000067e-01
-2.049999999999999878e-01
-1.950000000000000067e-01
-2.049999999999999878e-01
-1.950000000000000067e-01
-1.950000000000000067e-01
-1.849999999999999978e-01
-1.749999999999999889e-01
-1.849999999999999978e-01
-2.049999999999999878e-01
-1.950000000000000067e-01
-2.049999999999999878e-01
-1.950000000000000067e-01
-2.049999999999999878e-01
-2.049999999999999878e-01
-2.049999999999999878e-01
-2.149999999999999967e-01
-2.149999999999999967e-01
-2.149999999999999967e-01
-2.250000000000000056e-01
-2.250000000000000056e-01
-2.250000000000000056e-01
-2.250000000000000056e-01
-2.250000000000000056e-01
-2.149999999999999967e-01
-2.349999999999999867e-01
-2.250000000000000056e-01
-2.349999999999999867e-01
-2.250000000000000056e-01
-2.250000000000000056e-01
-2.250000000000000056e-01
-2.149999999999999967e-01
-2.149999999999999967e-01
-2.149999999999999967e-01
-2.049999999999999878e-01
-2.250000000000000056e-01
-2.250000000000000056e-01
-2.149999999999999967e-01
-1.749999999999999889e-01
-1.250000000000000000e-01
-1.250000000000000000e-01
-3.500000000000000333e-02
-4.499999999999999833e-02
-1.250000000000000000e-01
-1.350000000000000089e-01
-1.950000000000000067e-01
-2.250000000000000056e-01
-2.049999999999999878e-01
-2.250000000000000056e-01
-2.250000000000000056e-01
-2.149999999999999967e-01
-2.250000000000000056e-01
-2.149999999999999967e-01
-2.149999999999999967e-01
-2.250000000000000056e-01
-2.049999999999999878e-01
-2.049999999999999878e-01
-1.950000000000000067e-01
-1.950000000000000067e-01
-1.950000000000000067e-01
-1.350000000000000089e-01
-3.049999999999999933e-01
-6.550000000000000266e-01
-4.050000000000000266e-01
1.125000000000000000e+00
2.294999999999999929e+00
2.834999999999999964e+00
1.945000000000000062e+00
2.349999999999999867e-01
-1.250000000000000000e-01
-5.500000000000000028e-02
-1.049999999999999961e-01
-1.650000000000000078e-01
-2.149999999999999967e-01
-2.149999999999999967e-01
-2.149999999999999967e-01
-2.149999999999999967e-01
-2.250000000000000056e-01
-2.349999999999999867e-01
-2.250000000000000056e-01
-2.250000000000000056e-01
-2.149999999999999967e-01
-2.049999999999999878e-01
-1.950000000000000067e-01
-1.849999999999999978e-01
-1.849999999999999978e-01
-1.650000000000000078e-01
-1.549999999999999989e-01
-1.350000000000000089e-01
-1.250000000000000000e-01
-9.500000000000000111e-02
-6.500000000000000222e-02
-3.500000000000000333e-02
-2.500000000000000139e-02
3.500000000000000333e-02
7.499999999999999722e-02
1.250000000000000000e-01
1.650000000000000078e-01
2.250000000000000056e-01
2.849999999999999756e-01
3.250000000000000111e-01
3.750000000000000000e-01
4.050000000000000266e-01
4.450000000000000067e-01
4.149999999999999800e-01
3.449999999999999734e-01
2.550000000000000044e-01
1.549999999999999989e-01
3.500000000000000333e-02
-7.499999999999999722e-02
-1.449999999999999900e-01
-1.749999999999999889e-01
-1.950000000000000067e-01
-2.149999999999999967e-01
-2.149999999999999967e-01
-2.250000000000000056e-01
-2.149999999999999967e-01
-2.250000000000000056e-01
-2.250000000000000056e-01
-2.149999999999999967e-01
-2.250000000000000056e-01
-2.149999999999999967e-01
-2.049999999999999878e-01
-2.049999999999999878e-01
-2.049999999999999878e-01
-2.149999999999999967e-01
-2.049999999999999878e-01
-1.849999999999999978e-01
-2.049999999999999878e-01
-2.149999999999999967e-01
-2.049999999999999878e-01
-2.149999999999999967e-01
-2.149999999999999967e-01
-2.250000000000000056e-01
-2.149999999999999967e-01
-2.049999999999999878e-01
-2.349999999999999867e-01
-2.449999999999999956e-01
-2.449999999999999956e-01
-2.449999999999999956e-01
-2.449999999999999956e-01
-2.550000000000000044e-01
-2.550000000000000044e-01
-2.349999999999999867e-01
-2.449999999999999956e-01
-2.650000000000000133e-01
-2.449999999999999956e-01
-2.449999999999999956e-01
-2.449999999999999956e-01
-2.550000000000000044e-01
-2.449999999999999956e-01
-2.349999999999999867e-01
-2.449999999999999956e-01
-2.449999999999999956e-01
-2.149999999999999967e-01
-1.650000000000000078e-01
-1.650000000000000078e-01
-1.350000000000000089e-01
-4.499999999999999833e-02
-9.500000000000000111e-02
-1.749999999999999889e-01
-2.049999999999999878e-01
-2.049999999999999878e-01
-2.449999999999999956e-01
-2.449999999999999956e-01
-2.550000000000000044e-01
-2.550000000000000044e-01
-2.250000000000000056e-01
-2.349999999999999867e-01
-2.449999999999999956e-01
-2.349999999999999867e-01
-2.250000000000000056e-01
-2.349999999999999867e-01
-2.349999999999999867e-01
-2.149999999999999967e-01
-1.849999999999999978e-01
-1.749999999999999889e-01
-3.250000000000000111e-01
-6.550000000000000266e-01
-4.949999999999999956e-01
1.004999999999999893e+00
2.254999999999999893e+00
2.734999999999999876e+00
2.234999999999999876e+00
4.749999999999999778e-01
-1.250000000000000000e-01
-5.500000000000000028e-02
-1.049999999999999961e-01
-1.749999999999999889e-01
-2.250000000000000056e-01
-2.349999999999999867e-01
-2.149999999999999967e-01
-2.349999999999999867e-01
-2.550000000000000044e-01
-2.449999999999999956e-01
-2.250000000000000056e-01
-2.149999999999999967e-01
-2.250000000000000056e-01
-2.149999999999999967e-01
-1.950000000000000067e-01
-1.950000000000000067e-01
-1.950000000000000067e-01
-1.749999999999999889e-01
-1.650000000000000078e-01
-1.350000000000000089e-01
-1.350000000000000089e-01
-1.049999999999999961e-01
-6.500000000000000222e-02
-3.500000000000000333e-02
-5.000000000000000104e-03
3.500000000000000333e-02
8.500000000000000611e-02
1.449999999999999900e-01
1.849999999999999978e-01
2.449999999999999956e-01
3.049999999999999933e-01
3.449999999999999734e-01
3.850000000000000089e-01
4.349999999999999978e-01
4.450000000000000067e-01
4.050000000000000266e-01
3.150000000000000022e-01
2.049999999999999878e-01
1.049999999999999961e-01
-5.000000000000000104e-03
-1.049999999999999961e-01
-1.549999999999999989e-01
-1.950000000000000067e-01
-2.149999999999999967e-01
-2.250000000000000056e-01
-2.250000000000000056e-01
-2.149999999999999967e-01
-2.349999999999999867e-01
-2.449999999999999956e-01
-2.349999999999999867e-01
-2.149999999999999967e-01
-2.149999999999999967e-01
-2.250000000000000056e-01
-2.049999999999999878e-01
-1.849999999999999978e-01
-2.049999999999999878e-01
-2.049999999999999878e-01
-2.049999999999999878e-01
-2.049999999999999878e-01
-1.950000000000000067e-01
-2.049999999999999878e-01
-2.049999999999999878e-01
-1.749999999999999889e-01
-2.049999999999999878e-01
-2.149999999999999967e-01
-2.049999999999999878e-01
-2.149999999999999967e-01
-2.149999999999999967e-01
-2.250000000000000056e-01
-2.149999999999999967e-01
-2.049999999999999878e-01
-2.250000000000000056e-01
-2.349999999999999867e-01
-2.250000000000000056e-01
-2.250000000000000056e-01
-2.149999999999999967e-01
-2.349999999999999867e-01
-2.349999999999999867e-01
-2.149999999999999967e-01
-2.250000000000000056e-01
-2.349999999999999867e-01
-2.250000000000000056e-01
-2.149999999999999967e-01
-2.149999999999999967e-01
-2.250000000000000056e-01
-2.149999999999999967e-01
-1.950000000000000067e-01
-2.149999999999999967e-01
-2.149999999999999967e-01
-1.950000000000000067e-01
-2.149999999999999967e-01
-1.449999999999999900e-01
-1.150000000000000050e-01
-1.150000000000000050e-01
-1.499999999999999944e-02
-1.499999999999999944e-02
-1.350000000000000089e-01
-1.549999999999999989e-01
-1.549999999999999989e-01
-1.449999999999999900e-01
-1.950000000000000067e-01
-1.950000000000000067e-01
-1.950000000000000067e-01
-2.049999999999999878e-01
-2.049999999999999878e-01
-1.950000000000000067e-01
-1.950000000000000067e-01
-1.950000000000000067e-01
-1.950000000000000067e-01
-1.950000000000000067e-01
-1.849999999999999978e-01
-1.849999999999999978e-01
-1.650000000000000078e-01
-1.549999999999999989e-01
-4.849999999999999867e-01
-6.550000000000000266e-01
2.550000000000000044e-01
1.814999999999999947e+00
2.564999999999999947e+00
2.754999999999999893e+00
1.135000000000000009e+00
-3.500000000000000333e-02
-5.500000000000000028e-02
-8.500000000000000611e-02
-1.449999999999999900e-01
-1.849999999999999978e-01
-1.950000000000000067e-01
-2.149999999999999967e-01
-2.250000000000000056e-01
-2.250000000000000056e-01
-2.149999999999999967e-01
-2.149999999999999967e-01
-2.250000000000000056e-01
-2.049999999999999878e-01
-1.950000000000000067e-01
-1.950000000000000067e-01
-1.950000000000000067e-01
-1.749999999999999889e-01
-1.749999999999999889e-01
-1.549999999999999989e-01
-1.449999999999999900e-01
-1.250000000000000000e-01
-9.500000000000000111e-02
-7.499999999999999722e-02
-6.500000000000000222e-02
-2.500000000000000139e-02
1.499999999999999944e-02
4.499999999999999833e-02
9.500000000000000111e-02
1.549999999999999989e-01
2.250000000000000056e-01
2.750000000000000222e-01
3.150000000000000022e-01
3.750000000000000000e-01
4.149999999999999800e-01
4.550000000000000155e-01
4.650000000000000244e-01
4.349999999999999978e-01
3.850000000000000089e-01
2.550000000000000044e-01
1.350000000000000089e-01
2.500000000000000139e-02
-6.500000000000000222e-02
-1.250000000000000000e-01
-1.749999999999999889e-01
-1.950000000000000067e-01
-1.849999999999999978e-01
-2.049999999999999878e-01
-2.149999999999999967e-01
-1.950000000000000067e-01
-1.950000000000000067e-01
-1.849999999999999978e-01
-1.950000000000000067e-01
-1.849999999999999978e-01
-1.749999999999999889e-01
-1.849999999999999978e-01
-1.849999999999999978e-01
-1.749999999999999889e-01
-1.650000000000000078e-01
-1.650000000000000078e-01
-1.749999999999999889e-01
-1.749999999999999889e-01
-1.650000000000000078e-01
-1.749999999999999889e-01
-1.849999999999999978e-01
-1.749999999999999889e-01
-1.849999999999999978e-01
-1.749999999999999889e-01
-1.849999999999999978e-01
-1.849999999999999978e-01
-1.749999999999999889e-01
-1.849999999999999978e-01
-2.049999999999999878e-01
-1.950000000000000067e-01
-1.950000000000000067e-01
-1.950000000000000067e-01
-1.950000000000000067e-01
-1.950000000000000067e-01
-1.749999999999999889e-01
-1.950000000000000067e-01
-2.149999999999999967e-01
-1.950000000000000067e-01
-1.950000000000000067e-01
-1.849999999999999978e-01
-1.950000000000000067e-01
-1.849999999999999978e-01
-1.749999999999999889e-01
-1.849999999999999978e-01
-1.849999999999999978e-01
-1.749999999999999889e-01
-1.549999999999999989e-01
-1.749999999999999889e-01
-1.350000000000000089e-01
-1.049999999999999961e-01
-8.500000000000000611e-02
-2.500000000000000139e-02
3.500000000000000333e-02
-3.500000000000000333e-02
-1.049999999999999961e-01
-1.250000000000000000e-01
-1.350000000000000089e-01
-1.650000000000000078e-01
-1.650000000000000078e-01
-1.749999999999999889e-01
-1.749999999999999889e-01
-1.749999999999999889e-01
-1.749999999999999889e-01
-1.749999999999999889e-01
-1.749999999999999889e-01
-1.650000000000000078e-01
-1.549999999999999989e-01
-1.650000000000000078e-01
-1.650000000000000078e-01
-1.549999999999999989e-01
-1.449999999999999900e-01
-1.049999999999999961e-01
-1.749999999999999889e-01
-5.749999999999999556e-01
-5.450000000000000400e-01
6.850000000000000533e-01
2.075000000000000178e+00
2.705000000000000071e+00
2.564999999999999947e+00
8.249999999999999556e-01
-7.499999999999999722e-02
-1.499999999999999944e-02
-3.500000000000000333e-02
-1.250000000000000000e-01
-1.650000000000000078e-01
-1.849999999999999978e-01
-1.849999999999999978e-01
-1.849999999999999978e-01
-1.950000000000000067e-01
-1.849999999999999978e-01
-1.650000000000000078e-01
-1.849999999999999978e-01
-1.849999999999999978e-01
-1.749999999999999889e-01
-1.650000000000000078e-01
-1.549999999999999989e-01
-1.549999999999999989e-01
-1.350000000000000089e-01
-9.500000000000000111e-02
-1.049999999999999961e-01
-9.500000000000000111e-02
-6.500000000000000222e-02
-4.499999999999999833e-02
-5.000000000000000104e-03
1.499999999999999944e-02
6.500000000000000222e-02
1.350000000000000089e-01
1.749999999999999889e-01
2.250000000000000056e-01
2.949999999999999845e-01
3.449999999999999734e-01
3.950000000000000178e-01
4.249999999999999889e-01
4.749999999999999778e-01
5.150000000000000133e-01
4.849999999999999867e-01
4.149999999999999800e-01
3.350000000000000200e-01
2.149999999999999967e-01
1.049999999999999961e-01
-1.499999999999999944e-02
-7.499999999999999722e-02
-1.150000000000000050e-01
-1.449999999999999900e-01
-1.650000000000000078e-01
-1.749999999999999889e-01
-1.749999999999999889e-01
-1.749999999999999889e-01
-1.749999999999999889e-01
-1.749999999999999889e-01
-1.549999999999999989e-01
-1.650000000000000078e-01
-1.650000000000000078e-01
-1.549999999999999989e-01
-1.549999999999999989e-01
-1.449999999999999900e-01
-1.549999999999999989e-01
-1.449999999999999900e-01
-1.350000000000000089e-01
-1.449999999999999900e-01
-1.549999999999999989e-01
-1.449999999999999900e-01
-1.549999999999999989e-01
-1.449999999999999900e-01
-1.650000000000000078e-01
-1.650000000000000078e-01
-1.549999999999999989e-01
-1.650000000000000078e-01
-1.749999999999999889e-01
-1.749999999999999889e-01
-1.650000000000000078e-01
-1.749999999999999889e-01
-1.849999999999999978e-01
-1.849999999999999978e-01
-1.749999999999999889e-01
-1.749999999999999889e-01
-1.950000000000000067e-01
-1.749999999999999889e-01
-1.849999999999999978e-01
-1.749999999999999889e-01
-1.950000000000000067e-01
-1.849999999999999978e-01
-1.749999999999999889e-01
-1.650000000000000078e-01
-1.749999999999999889e-01
-1.749999999999999889e-01
-1.749999999999999889e-01
-1.650000000000000078e-01
-1.749999999999999889e-01
-1.650000000000000078e-01
-1.549999999999999989e-01
-1.650000000000000078e-01
-1.150000000000000050e-01
-7.499999999999999722e-02
-6.500000000000000222e-02
4.499999999999999833e-02
5.000000000000000104e-03
-9.500000000000000111e-02
-1.049999999999999961e-01
-1.250000000000000000e-01
-1.350000000000000089e-01
-1.650000000000000078e-01
-1.749999999999999889e-01
-1.650000000000000078e-01
-1.749999999999999889e-01
-1.849999999999999978e-01
-1.650000000000000078e-01
-1.749999999999999889e-01
-1.749999999999999889e-01
-1.749999999999999889e-01
-1.650000000000000078e-01
-1.650000000000000078e-01
-1.650000000000000078e-01
-1.449999999999999900e-01
-1.150000000000000050e-01
-9.500000000000000111e-02
-3.449999999999999734e-01
-6.450000000000000178e-01
-1.950000000000000067e-01
1.475000000000000089e+00
2.484999999999999876e+00
2.895000000000000018e+00
1.574999999999999956e+00
1.150000000000000050e-01
-4.499999999999999833e-02
-2.500000000000000139e-02
-8.500000000000000611e-02
-1.350000000000000089e-01
-1.650000000000000078e-01
-1.749999999999999889e-01
-1.749999999999999889e-01
-1.950000000000000067e-01
-2.049999999999999878e-01
-1.950000000000000067e-01
-1.849999999999999978e-01
-1.849999999999999978e-01
-1.849999999999999978e-01
-1.749999999999999889e-01
-1.449999999999999900e-01
-1.549999999999999989e-01
-1.549999999999999989e-01
-1.449999999999999900e-01
-1.049999999999999961e-01
-9.500000000000000111e-02
-8.500000000000000611e-02
-5.500000000000000028e-02
-2.500000000000000139e-02
5.000000000000000104e-03
3.500000000000000333e-02
8.500000000000000611e-02
1.449999999999999900e-01
1.950000000000000067e-01
2.449999999999999956e-01
3.049999999999999933e-01
3.649999999999999911e-01
4.050000000000000266e-01
4.450000000000000067e-01
4.849999999999999867e-01
5.150000000000000133e-01
5.050000000000000044e-01
4.349999999999999978e-01
3.549999999999999822e-01
2.550000000000000044e-01
1.049999999999999961e-01
-1.499999999999999944e-02
-8.500000000000000611e-02
-1.150000000000000050e-01
-1.449999999999999900e-01
-1.749999999999999889e-01
-1.849999999999999978e-01
-1.749999999999999889e-01
-1.749999999999999889e-01
-1.849999999999999978e-01
-1.749999999999999889e-01
-1.650000000000000078e-01
-1.749999999999999889e-01
-1.849999999999999978e-01
-1.650000000000000078e-01
-1.449999999999999900e-01
-1.449999999999999900e-01
-1.549999999999999989e-01
-1.549999999999999989e-01
-1.549999999999999989e-01
-1.449999999999999900e-01
-1.549999999999999989e-01
-1.549999999999999989e-01
-1.449999999999999900e-01
-1.650000000000000078e-01
-1.650000000000000078e-01
-1.549999999999999989e-01
-1.549999999999999989e-01
-1.549999999999999989e-01
-1.749999999999999889e-01
-1.650000000000000078e-01
-1.549999999999999989e-01
-1.849999999999999978e-01
-1.849999999999999978e-01
-1.749999999999999889e-01
-1.650000000000000078e-01
-1.749999999999999889e-01
-1.849999999999999978e-01
-1.849999999999999978e-01
-1.749999999999999889e-01
-1.650000000000000078e-01
-1.749999999999999889e-01
-1.749999999999999889e-01
-1.749999999999999889e-01
-1.749999999999999889e-01
-1.849999999999999978e-01
-1.749999999999999889e-01
-1.650000000000000078e-01
-1.449999999999999900e-01
-9.500000000000000111e-02
-8.500000000000000611e-02
5.000000000000000104e-03
2.500000000000000139e-02
-9.500000000000000111e-02
-1.049999999999999961e-01
-1.150000000000000050e-01
-1.650000000000000078e-01
-1.749999999999999889e-01
-1.849999999999999978e-01
-1.749999999999999889e-01
-1.650000000000000078e-01
-1.650000000000000078e-01
-1.650000000000000078e-01
-1.549999999999999989e-01
-1.650000000000000078e-01
-1.650000000000000078e-01
-1.650000000000000078e-01
-1.549999999999999989e-01
-1.449999999999999900e-01
-1.549999999999999989e-01
-1.350000000000000089e-01
-7.499999999999999722e-02
-2.049999999999999878e-01
-5.749999999999999556e-01
-4.749999999999999778e-01
1.034999999999999920e+00
2.294999999999999929e+00
2.814999999999999947e+00
2.165000000000000036e+00
4.550000000000000155e-01
-8.500000000000000611e-02
1.499999999999999944e-02
-5.000000000000000104e-03
-7.499999999999999722e-02
-1.250000000000000000e-01
-1.650000000000000078e-01
-1.650000000000000078e-01
-1.549999999999999989e-01
-1.650000000000000078e-01
-1.749999999999999889e-01
-1.749999999999999889e-01
-1.549999999999999989e-01
-1.549999999999999989e-01
-1.549999999999999989e-01
-1.449999999999999900e-01
-1.150000000000000050e-01
-1.250000000000000000e-01
-1.150000000000000050e-01
-9.500000000000000111e-02
-8.500000000000000611e-02
-6.500000000000000222e-02
-5.500000000000000028e-02
-1.499999999999999944e-02
3.500000000000000333e-02
4.499999999999999833e-02
7.499999999999999722e-02
1.350000000000000089e-01
1.950000000000000067e-01
2.449999999999999956e-01
2.849999999999999756e-01
3.350000000000000200e-01
4.050000000000000266e-01
4.450000000000000067e-01
4.749999999999999778e-01
4.949999999999999956e-01
4.849999999999999867e-01
4.450000000000000067e-01
3.649999999999999911e-01
2.750000000000000222e-01
1.650000000000000078e-01
3.500000000000000333e-02
-6.500000000000000222e-02
-1.049999999999999961e-01
-1.250000000000000000e-01
-1.449999999999999900e-01
-1.650000000000000078e-01
-1.650000000000000078e-01
-1.549999999999999989e-01
-1.650000000000000078e-01
-1.650000000000000078e-01
-1.650000000000000078e-01
-1.549999999999999989e-01
-1.449999999999999900e-01
-1.549999999999999989e-01
-1.549999999999999989e-01
-1.350000000000000089e-01
-1.449999999999999900e-01
-1.449999999999999900e-01
-1.350000000000000089e-01
-1.350000000000000089e-01
-1.449999999999999900e-01
-1.449999999999999900e-01
-1.449999999999999900e-01
-1.449999999999999900e-01
-1.549999999999999989e-01
-1.650000000000000078e-01
-1.549999999999999989e-01
-1.549999999999999989e-01
-1.650000000000000078e-01
-1.749999999999999889e-01
-1.749999999999999889e-01
-1.749999999999999889e-01
-1.749999999999999889e-01
-1.849999999999999978e-01
-1.849999999999999978e-01
-1.849999999999999978e-01
-1.849999999999999978e-01
-1.849999999999999978e-01
-1.849999999999999978e-01
-1.749999999999999889e-01
-1.749999999999999889e-01
-1.849999999999999978e-01
-1.749999999999999889e-01
-1.749999999999999889e-01
-1.749999999999999889e-01
-1.549999999999999989e-01
-9.500000000000000111e-02
-7.499999999999999722e-02
-6.500000000000000222e-02
2.500000000000000139e-02
-3.500000000000000333e-02
-1.250000000000000000e-01
-1.350000000000000089e-01
-1.350000000000000089e-01
-1.549999999999999989e-01
-1.549999999999999989e-01
-1.950000000000000067e-01
-1.950000000000000067e-01
-1.749999999999999889e-01
-1.749999999999999889e-01
-1.749999999999999889e-01
-1.849999999999999978e-01
-1.749999999999999889e-01
-1.549999999999999989e-01
-1.749999999999999889e-01
-1.749999999999999889e-01
-1.549999999999999989e-01
-1.549999999999999989e-01
-1.150000000000000050e-01
-1.250000000000000000e-01
-4.749999999999999778e-01
-5.550000000000000488e-01
3.850000000000000089e-01
1.955000000000000071e+00
2.674999999999999822e+00
2.654999999999999805e+00
8.950000000000000178e-01
-6.500000000000000222e-02
-1.499999999999999944e-02
-2.500000000000000139e-02
-1.250000000000000000e-01
-1.650000000000000078e-01
-1.849999999999999978e-01
-1.950000000000000067e-01
-1.950000000000000067e-01
-1.950000000000000067e-01
-1.849999999999999978e-01
-1.650000000000000078e-01
-1.849999999999999978e-01
-1.849999999999999978e-01
-1.749999999999999889e-01
-1.650000000000000078e-01
-1.549999999999999989e-01
-1.549999999999999989e-01
-1.449999999999999900e-01
-1.150000000000000050e-01
-1.049999999999999961e-01
-9.500000000000000111e-02
-7.499999999999999722e-02
-4.499999999999999833e-02
-5.000000000000000104e-03
3.500000000000000333e-02
6.500000000000000222e-02
1.250000000000000000e-01
1.749999999999999889e-01
2.250000000000000056e-01
2.849999999999999756e-01
3.250000000000000111e-01
3.850000000000000089e-01
4.249999999999999889e-01
4.749999999999999778e-01
5.050000000000000044e-01
4.749999999999999778e-01
3.950000000000000178e-01
2.949999999999999845e-01
1.749999999999999889e-01
7.499999999999999722e-02
-3.500000000000000333e-02
-1.150000000000000050e-01
-1.449999999999999900e-01
-1.849999999999999978e-01
-2.049999999999999878e-01
-1.950000000000000067e-01
-1.950000000000000067e-01
-2.049999999999999878e-01
-1.950000000000000067e-01
-2.049999999999999878e-01
-1.950000000000000067e-01
-1.950000000000000067e-01
-1.950000000000000067e-01
-1.849999999999999978e-01
-1.849999999999999978e-01
-1.749999999999999889e-01
-1.849999999999999978e-01
-1.849999999999999978e-01
-1.650000000000000078e-01
-1.749999999999999889e-01
-1.749999999999999889e-01
-1.749999999999999889e-01
-1.749999999999999889e-01
-1.749999999999999889e-01
-1.849999999999999978e-01
-1.749999999999999889e-01
-1.749999999999999889e-01
-1.749999999999999889e-01
-1.950000000000000067e-01
-1.950000000000000067e-01
-1.950000000000000067e-01
-1.950000000000000067e-01
-2.049999999999999878e-01
-2.049999999999999878e-01
-2.049999999999999878e-01
-2.149999999999999967e-01
-2.149999999999999967e-01
-2.049999999999999878e-01
-2.049999999999999878e-01
-2.049999999999999878e-01
-2.049999999999999878e-01
-2.049999999999999878e-01
-1.849999999999999978e-01
-2.049999999999999878e-01
-2.049999999999999878e-01
-1.950000000000000067e-01
-1.950000000000000067e-01
-1.950000000000000067e-01
-2.049999999999999878e-01
-1.849999999999999978e-01
-1.650000000000000078e-01
-1.350000000000000089e-01
-1.049999999999999961e-01
-1.150000000000000050e-01
1.499999999999999944e-02
-3.500000000000000333e-02
-1.350000000000000089e-01
-1.449999999999999900e-01
-1.449999999999999900e-01
-1.749999999999999889e-01
-1.950000000000000067e-01
-1.950000000000000067e-01
-1.849999999999999978e-01
-1.849999999999999978e-01
-1.950000000000000067e-01
-1.849999999999999978e-01
-1.650000000000000078e-01
-1.849999999999999978e-01
-2.049999999999999878e-01
-1.849999999999999978e-01
-1.849999999999999978e-01
-1.749999999999999889e-01
-1.749999999999999889e-01
-1.449999999999999900e-01
-1.250000000000000000e-01
-4.149999999999999800e-01
-6.650000000000000355e-01
-1.650000000000000078e-01
1.554999999999999938e+00
2.504999999999999893e+00
2.794999999999999929e+00
1.395000000000000018e+00
4.499999999999999833e-02
-6.500000000000000222e-02
-9.500000000000000111e-02
-1.350000000000000089e-01
-1.849999999999999978e-01
-2.049999999999999878e-01
-2.250000000000000056e-01
-2.250000000000000056e-01
-2.149999999999999967e-01
-2.149999999999999967e-01
-2.250000000000000056e-01
-2.149999999999999967e-01
-2.149999999999999967e-01
-2.049999999999999878e-01
-2.049999999999999878e-01
-1.950000000000000067e-01
-1.650000000000000078e-01
-1.650000000000000078e-01
-1.549999999999999989e-01
-1.350000000000000089e-01
-1.150000000000000050e-01
-9.500000000000000111e-02
-7.499999999999999722e-02
-5.500000000000000028e-02
-5.000000000000000104e-03
1.499999999999999944e-02
4.499999999999999833e-02
1.049999999999999961e-01
1.549999999999999989e-01
2.149999999999999967e-01
2.550000000000000044e-01
3.150000000000000022e-01
3.850000000000000089e-01
4.149999999999999800e-01
4.450000000000000067e-01
4.650000000000000244e-01
4.249999999999999889e-01
3.350000000000000200e-01
2.049999999999999878e-01
7.499999999999999722e-02
-2.500000000000000139e-02
-1.049999999999999961e-01
-1.650000000000000078e-01
-1.950000000000000067e-01
-2.049999999999999878e-01
-2.149999999999999967e-01
-2.349999999999999867e-01
-2.250000000000000056e-01
-2.149999999999999967e-01
-2.250000000000000056e-01
-2.349999999999999867e-01
-2.149999999999999967e-01
-2.149999999999999967e-01
-2.049999999999999878e-01
-2.149999999999999967e-01
-2.149999999999999967e-01
-1.950000000000000067e-01
-1.950000000000000067e-01
-2.049999999999999878e-01
-1.950000000000000067e-01
-1.950000000000000067e-01
-1.950000000000000067e-01
-1.950000000000000067e-01
-2.049999999999999878e-01
-1.950000000000000067e-01
-1.950000000000000067e-01
-2.049999999999999878e-01
-2.049999999999999878e-01
-2.049999999999999878e-01
-2.149999999999999967e-01
-2.250000000000000056e-01
-2.250000000000000056e-01
-2.149999999999999967e-01
-2.250000000000000056e-01
-2.349999999999999867e-01
-2.250000000000000056e-01
-2.250000000000000056e-01
-2.149999999999999967e-01
-2.250000000000000056e-01
-2.250000000000000056e-01
-2.149999999999999967e-01
-2.149999999999999967e-01
-2.250000000000000056e-01
-2.149999999999999967e-01
-2.149999999999999967e-01
-2.049999999999999878e-01
-2.149999999999999967e-01
-2.049999999999999878e-01
-1.849999999999999978e-01
-2.049999999999999878e-01
-2.149999999999999967e-01
-1.950000000000000067e-01
-1.950000000000000067e-01
-1.950000000000000067e-01
-1.650000000000000078e-01
-1.049999999999999961e-01
-1.049999999999999961e-01
5.000000000000000104e-03
-3.500000000000000333e-02
-1.350000000000000089e-01
-1.449999999999999900e-01
-1.650000000000000078e-01
-1.749999999999999889e-01
-1.950000000000000067e-01
-1.849999999999999978e-01
-2.049999999999999878e-01
-2.049999999999999878e-01
-1.950000000000000067e-01
-1.950000000000000067e-01
-1.950000000000000067e-01
-2.049999999999999878e-01
-1.950000000000000067e-01
-1.650000000000000078e-01
-1.749999999999999889e-01
-1.849999999999999978e-01
-1.749999999999999889e-01
-1.449999999999999900e-01
-1.250000000000000000e-01
-2.250000000000000056e-01
-6.450000000000000178e-01
-4.050000000000000266e-01
1.225000000000000089e+00
2.354999999999999982e+00
2.785000000000000142e+00
1.995000000000000107e+00
3.350000000000000200e-01
-9.500000000000000111e-02
-3.500000000000000333e-02
-8.500000000000000611e-02
-1.549999999999999989e-01
-1.950000000000000067e-01
-2.049999999999999878e-01
-2.149999999999999967e-01
-2.250000000000000056e-01
-2.250000000000000056e-01
-2.250000000000000056e-01
-2.149999999999999967e-01
-2.149999999999999967e-01
-2.049999999999999878e-01
-2.049999999999999878e-01
-1.849999999999999978e-01
-1.749999999999999889e-01
-1.749999999999999889e-01
-1.650000000000000078e-01
-1.449999999999999900e-01
-1.250000000000000000e-01
-1.150000000000000050e-01
-8.500000000000000611e-02
-6.500000000000000222e-02
-3.500000000000000333e-02
-5.000000000000000104e-03
3.500000000000000333e-02
9.500000000000000111e-02
1.350000000000000089e-01
1.950000000000000067e-01
2.550000000000000044e-01
3.049999999999999933e-01
3.549999999999999822e-01
3.850000000000000089e-01
4.249999999999999889e-01
4.650000000000000244e-01
4.550000000000000155e-01
3.850000000000000089e-01
3.049999999999999933e-01
1.849999999999999978e-01
6.500000000000000222e-02
-5.500000000000000028e-02
-1.449999999999999900e-01
-1.650000000000000078e-01
-1.950000000000000067e-01
-2.049999999999999878e-01
-2.149999999999999967e-01
-2.149999999999999967e-01
-2.149999999999999967e-01
-2.149999999999999967e-01
-2.250000000000000056e-01
-2.149999999999999967e-01
-2.149999999999999967e-01
-2.149999999999999967e-01
-2.149999999999999967e-01
-1.950000000000000067e-01
-1.849999999999999978e-01
-2.049999999999999878e-01
-2.049999999999999878e-01
-1.950000000000000067e-01
-1.950000000000000067e-01
-2.049999999999999878e-01
-1.849999999999999978e-01
-1.849999999999999978e-01
-1.849999999999999978e-01
-2.049999999999999878e-01
-2.149999999999999967e-01
-1.950000000000000067e-01
-2.049999999999999878e-01
-2.149999999999999967e-01
-2.250000000000000056e-01
-2.149999999999999967e-01
-2.149999999999999967e-01
-2.250000000000000056e-01
-2.349999999999999867e-01
-2.149999999999999967e-01
-2.250000000000000056e-01
-2.250000000000000056e-01
-2.149999999999999967e-01
-2.250000000000000056e-01
-2.149999999999999967e-01
-2.250000000000000056e-01
-2.149999999999999967e-01
-1.950000000000000067e-01
-2.149999999999999967e-01
-2.250000000000000056e-01
-2.149999999999999967e-01
-2.049999999999999878e-01
-2.149999999999999967e-01
-2.149999999999999967e-01
-2.049999999999999878e-01
-1.950000000000000067e-01
-2.149999999999999967e-01
-2.049999999999999878e-01
-1.350000000000000089e-01
-1.250000000000000000e-01
-6.500000000000000222e-02
-3.500000000000000333e-02
-1.250000000000000000e-01
-1.350000000000000089e-01
-1.849999999999999978e-01
-1.950000000000000067e-01
-2.149999999999999967e-01
-2.049999999999999878e-01
-2.049999999999999878e-01
-2.149999999999999967e-01
-2.049999999999999878e-01
-1.950000000000000067e-01
-1.950000000000000067e-01
-2.149999999999999967e-01
-2.049999999999999878e-01
-1.950000000000000067e-01
-1.849999999999999978e-01
-1.950000000000000067e-01
-1.849999999999999978e-01
-1.549999999999999989e-01
-1.350000000000000089e-01
-2.250000000000000056e-01
-5.949999999999999734e-01
-5.849999999999999645e-01
7.149999999999999689e-01
2.084999999999999964e+00
2.714999999999999858e+00
2.334999999999999964e+00
5.050000000000000044e-01
-1.350000000000000089e-01
-3.500000000000000333e-02
-7.499999999999999722e-02
-1.449999999999999900e-01
-1.849999999999999978e-01
-2.149999999999999967e-01
-1.950000000000000067e-01
-2.250000000000000056e-01
-2.349999999999999867e-01
-2.250000000000000056e-01
-2.149999999999999967e-01
-2.149999999999999967e-01
-2.149999999999999967e-01
-2.049999999999999878e-01
-1.849999999999999978e-01
-1.950000000000000067e-01
-1.849999999999999978e-01
-1.650000000000000078e-01
-1.449999999999999900e-01
-1.350000000000000089e-01
-1.250000000000000000e-01
-1.049999999999999961e-01
-6.500000000000000222e-02
-5.500000000000000028e-02
-2.500000000000000139e-02
2.500000000000000139e-02
6.500000000000000222e-02
1.250000000000000000e-01
1.650000000000000078e-01
2.250000000000000056e-01
2.949999999999999845e-01
3.250000000000000111e-01
3.649999999999999911e-01
4.149999999999999800e-01
4.550000000000000155e-01
4.550000000000000155e-01
3.950000000000000178e-01
3.350000000000000200e-01
2.449999999999999956e-01
1.150000000000000050e-01
-1.499999999999999944e-02
-8.500000000000000611e-02
-1.549999999999999989e-01
-1.950000000000000067e-01
-2.049999999999999878e-01
-2.250000000000000056e-01
-2.049999999999999878e-01
-2.349999999999999867e-01
-2.349999999999999867e-01
-2.349999999999999867e-01
-2.149999999999999967e-01
-2.149999999999999967e-01
-2.250000000000000056e-01
-2.049999999999999878e-01
-1.849999999999999978e-01
-1.950000000000000067e-01
-2.049999999999999878e-01
-1.950000000000000067e-01
-1.849999999999999978e-01
-1.849999999999999978e-01
-2.049999999999999878e-01
-1.950000000000000067e-01
-1.849999999999999978e-01
-1.950000000000000067e-01
-2.149999999999999967e-01
-2.049999999999999878e-01
-2.049999999999999878e-01
-2.049999999999999878e-01
-2.149999999999999967e-01
-2.149999999999999967e-01
-2.049999999999999878e-01
-2.250000000000000056e-01
-2.250000000000000056e-01
-2.149999999999999967e-01
-2.250000000000000056e-01
-2.149999999999999967e-01
-2.250000000000000056e-01
-2.250000000000000056e-01
-2.049999999999999878e-01
-2.149999999999999967e-01
-2.250000000000000056e-01
-2.149999999999999967e-01
-2.149999999999999967e-01
-2.149999999999999967e-01
-2.250000000000000056e-01
-2.149999999999999967e-01
-1.849999999999999978e-01
-2.049999999999999878e-01
-2.149999999999999967e-01
-2.049999999999999878e-01
-1.950000000000000067e-01
-2.049999999999999878e-01
-2.349999999999999867e-01
-1.849999999999999978e-01
-1.049999999999999961e-01
-1.049999999999999961e-01
-6.500000000000000222e-02
-7.499999999999999722e-02
-1.350000000000000089e-01
-1.549999999999999989e-01
-1.849999999999999978e-01
-1.950000000000000067e-01
-1.950000000000000067e-01
-2.049999999999999878e-01
-1.950000000000000067e-01
-1.950000000000000067e-01
-1.950000000000000067e-01
-1.950000000000000067e-01
-1.950000000000000067e-01
-1.950000000000000067e-01
-1.650000000000000078e-01
-1.849999999999999978e-01
-1.849999999999999978e-01
-1.650000000000000078e-01
-1.549999999999999989e-01
-1.650000000000000078e-01
-5.350000000000000311e-01
-6.350000000000000089e-01
3.250000000000000111e-01
1.844999999999999973e+00
2.584999999999999964e+00
2.634999999999999787e+00
9.150000000000000355e-01
-6.500000000000000222e-02
-3.500000000000000333e-02
-6.500000000000000222e-02
-1.350000000000000089e-01
-1.849999999999999978e-01
-2.149999999999999967e-01
-2.250000000000000056e-01
-2.250000000000000056e-01
-2.149999999999999967e-01
-2.250000000000000056e-01
-2.250000000000000056e-01
-2.250000000000000056e-01
-2.149999999999999967e-01
-2.149999999999999967e-01
-1.950000000000000067e-01
-1.849999999999999978e-01
-1.749999999999999889e-01
-1.650000000000000078e-01
-1.549999999999999989e-01
-1.250000000000000000e-01
-1.250000000000000000e-01
-1.150000000000000050e-01
-8.500000000000000611e-02
-5.500000000000000028e-02
-1.499999999999999944e-02
1.499999999999999944e-02
4.499999999999999833e-02
1.150000000000000050e-01
1.650000000000000078e-01
2.149999999999999967e-01
2.849999999999999756e-01
3.250000000000000111e-01
3.750000000000000000e-01
4.149999999999999800e-01
4.550000000000000155e-01
4.749999999999999778e-01
4.249999999999999889e-01
3.449999999999999734e-01
2.449999999999999956e-01
1.350000000000000089e-01
1.499999999999999944e-02
-8.500000000000000611e-02
-1.449999999999999900e-01
-1.749999999999999889e-01
-2.049999999999999878e-01
-2.250000000000000056e-01
-2.149999999999999967e-01
-2.250000000000000056e-01
-2.149999999999999967e-01
-2.250000000000000056e-01
-2.250000000000000056e-01
-1.950000000000000067e-01
-2.149999999999999967e-01
-2.149999999999999967e-01
-2.049999999999999878e-01
-1.950000000000000067e-01
-1.950000000000000067e-01
-1.950000000000000067e-01
-1.849999999999999978e-01
-1.650000000000000078e-01
-1.849999999999999978e-01
-1.950000000000000067e-01
-1.950000000000000067e-01
-1.950000000000000067e-01
-1.849999999999999978e-01
-1.950000000000000067e-01
-1.950000000000000067e-01
-1.849999999999999978e-01
-1.950000000000000067e-01
-2.049999999999999878e-01
-2.049999999999999878e-01
-2.049999999999999878e-01
-2.049999999999999878e-01
-2.149999999999999967e-01
-2.149999999999999967e-01
-1.950000000000000067e-01
-2.149999999999999967e-01
-2.149999999999999967e-01
-2.049999999999999878e-01
-2.149999999999999967e-01
-2.049999999999999878e-01
-2.049999999999999878e-01
-2.149999999999999967e-01
-1.950000000000000067e-01
-1.950000000000000067e-01
-2.049999999999999878e-01
-1.950000000000000067e-01
-2.049999999999999878e-01
-1.950000000000000067e-01
-1.950000000000000067e-01
-1.849999999999999978e-01
-1.650000000000000078e-01
-1.950000000000000067e-01
-2.250000000000000056e-01
-1.749999999999999889e-01
-9.500000000000000111e-02
-3.500000000000000333e-02
-4.499999999999999833e-02
-8.500000000000000611e-02
